Frame,Sub Frame,RF,BF,MG,LG,AT
1,0,-0.00255585,-0.00896454,0.0484848,0.0586319,0.0455856
1,1,0.000267029,-0.00644684,0.0516129,0.0596237,0.0402451
1,2,0.000495911,-0.00312805,0.0564194,0.0588989,0.0312042
1,3,-0.00320435,-0.00564575,0.0547028,0.0577927,0.0479889
1,4,-0.00675201,-0.00614166,0.0601959,0.0590515,0.0325775
2,0,-0.00839233,-0.00579834,0.0612259,0.0650406,0.0333786
2,1,-0.00232697,-0.00385284,0.0604248,0.0619125,0.0679779
2,2,0.00892639,0.00228882,0.0580597,0.0588226,0.0983429
2,3,0.01297,0.00823975,0.0537109,0.0574875,0.105438
2,4,0.00999451,0.00831604,0.0491714,0.0543213,0.0843811
3,0,0.00457764,0.00389099,0.0463486,0.050087,0.0256729
3,1,-0.00179291,0.00038147,0.0521469,0.0510788,-0.0271988
3,2,-0.00305176,-0.00526428,0.050087,0.0499344,-0.0418472
3,3,-0.000228882,-0.00583649,0.0510406,0.0496674,-0.0415039
3,4,0.00324249,-0.00728607,0.0533295,0.0479507,0.00331879
4,0,0.00408173,-0.00476837,0.0516891,0.0477982,0.0278473
4,1,0.00320435,-0.00278473,0.0497437,0.0440216,0.0770187
4,2,0.00602722,0.000419617,0.0453186,0.0448608,0.116158
4,3,0.00587463,0.00247955,0.0387573,0.0416946,0.121918
4,4,0.0075531,0.00362396,0.0338364,0.0369644,0.0934219
5,0,0.00297546,0.00305176,0.0295258,0.0336838,0.067215
5,1,-0.000152588,0.00286102,0.0298309,0.0299454,0.0419235
5,2,0.00221252,0.00278473,0.0294113,0.0299072,0.0377655
5,3,-0.00534058,0.00389099,0.0304031,0.0291824,0.0469589
5,4,-0.00915527,0.00320435,0.0305939,0.0309753,0.0337601
6,0,-0.0133514,-0.00148773,0.0303268,0.0324249,0.0251007
6,1,-0.0123215,-0.00324249,0.0298309,0.0313568,0.0272369
6,2,-0.0182343,-0.00545502,0.0332642,0.0308609,0.0267029
6,3,-0.0183487,-0.0018692,0.032959,0.0336456,0.0382233
6,4,-0.00610352,-7.63E-05,0.0355911,0.0364304,0.0471497
7,0,-0.00434875,0.000801086,0.0354004,0.0366974,0.0445175
7,1,-0.00205994,0.000267029,0.0337982,0.0389481,0.0429916
7,2,-0.0012207,-0.00114441,0.0312805,0.0418854,0.0462341
7,3,0.00431061,7.63E-05,0.0359344,0.043335,0.0644302
7,4,0.0104141,0.00156403,0.0370407,0.0489044,0.0634766
8,0,0.0130081,0.00415802,0.0340271,0.0495911,0.0539017
8,1,0.0157547,0.00492096,0.0327682,0.0484467,0.0522614
8,2,0.0151825,0.00537872,0.0343323,0.0481796,0.0679779
8,3,0.0117111,0.0063324,0.0308609,0.0437927,0.0910568
8,4,0.00774384,0.00423431,0.0279236,0.039711,0.0561523
9,0,0.00801086,0.00484467,0.0335693,0.0461578,-0.00553131
9,1,0.00488281,0.00350952,0.0388718,0.0515366,-0.0219345
9,2,0.00282288,0.000343323,0.0428391,0.052681,-0.0430298
9,3,-0.000686646,-0.00152588,0.0441742,0.0527573,-0.0337982
9,4,-0.00232697,-0.00144958,0.0419998,0.048027,0.0540543
10,0,-0.00144958,-0.00213623,0.0411987,0.043335,0.0839233
10,1,-0.00125885,-0.00469208,0.0413513,0.0447083,0.0733566
10,2,-0.00114441,-0.00457764,0.0392914,0.045433,0.0643539
10,3,-0.00396729,-0.00484467,0.0415421,0.0479126,0.0196838
10,4,-0.00160217,-0.00648499,0.0413895,0.0463486,-0.0239944
11,0,-0.000305176,-0.00171661,0.0392151,0.0458527,0.0111008
11,1,-0.000610352,-0.00141144,0.0330353,0.0440216,0.078125
11,2,0.00469208,0.00148773,0.0330734,0.037117,0.183907
11,3,0.00679016,0.00675201,0.0239563,0.029335,0.262985
11,4,0.00617981,0.00720978,0.0188065,0.0270081,0.300751
12,0,-0.00175476,0.00598907,0.016098,0.027504,0.309334
12,1,-0.00732422,0.00289917,0.0161362,0.0310135,0.0799942
12,2,-0.00648499,0.000190735,0.0191498,0.0366592,-0.344009
12,3,-0.0101471,-0.00221252,0.0274277,0.0421524,-0.565071
12,4,-0.0111771,-0.00453949,0.0415421,0.0527191,-0.297241
13,0,-0.01091,-0.00450134,0.0580597,0.0603104,0.130043
13,1,-0.0123215,-0.00141144,0.0651169,0.0682449,0.378189
13,2,-0.01194,-0.00152588,0.0642395,0.0623322,0.379295
13,3,-0.0103378,-0.00354767,0.054245,0.0550461,0.214005
13,4,-0.00995636,-0.00289917,0.0460052,0.0497818,-0.0715637
14,0,-0.0102234,-0.00598907,0.0431442,0.0511932,-0.268898
14,1,-0.0155258,-0.00469208,0.0405121,0.0490189,-0.23159
14,2,-0.00591278,-0.00385284,0.0416946,0.0476837,-0.025444
14,3,0.00743866,-0.00190735,0.0447083,0.0498962,0.1231
14,4,0.021553,0.0019455,0.0391388,0.0484085,0.172958
15,0,0.0300217,0.0037384,0.0349808,0.0424576,0.190659
15,1,0.031395,0.00400543,0.0327682,0.0422287,0.207291
15,2,0.0250626,0.00766754,0.0377274,0.0429916,0.145111
15,3,0.0219727,0.0094223,0.037117,0.0388336,0.0318909
15,4,0.0165176,0.00583649,0.0328064,0.0351715,-0.0187683
16,0,0.0150681,0.00156403,0.030098,0.0331116,0.0391006
16,1,0.00988007,-0.000724792,0.0267792,0.031395,0.0579834
16,2,0.0075531,-0.00270844,0.0266266,0.0340271,0.059433
16,3,0.0159073,-0.00427246,0.0273132,0.0365067,0.0640106
16,4,-0.00419617,-0.00476837,0.0274658,0.0331116,0.0579071
17,0,-0.00202179,-0.00534058,0.0272369,0.0337219,0.0600815
17,1,0.0185013,-0.00614166,0.0310516,0.0355911,0.0764847
17,2,0.0228119,-0.00221252,0.0341415,0.038681,0.0915909
17,3,0.0129318,-0.00087738,0.0375748,0.0464249,0.036087
17,4,0.0157547,-0.00156403,0.0402451,0.0476837,0.0401306
18,0,-0.00522614,0.00148773,0.045166,0.0497818,0.0521469
18,1,-0.0497437,0.00339508,0.0459671,0.0505447,0.129089
18,2,-0.102997,0.00263214,0.0419235,0.0463104,0.174179
18,3,-0.101929,0.00125885,0.0358963,0.0370789,0.0813675
18,4,-0.0799561,0.00427246,0.0273514,0.0330353,-0.0627136
19,0,-0.0366211,0.00621796,0.0217056,0.031395,-0.176735
19,1,-0.00087738,0.00644684,0.021019,0.0332642,-0.173721
19,2,-0.00572205,0.00667572,0.0265884,0.0392532,-0.112457
19,3,-0.0298691,0.00640869,0.0351715,0.0489044,-0.112534
19,4,-0.0165176,0.00587463,0.0452423,0.0588989,-0.0379562
20,0,0.0169754,0.0037384,0.0580215,0.0640106,0.00926971
20,1,0.0416183,0.00324249,0.0655365,0.0629044,0.0622559
20,2,0.0545883,0.0056076,0.0597382,0.0584412,0.0608826
20,3,0.0511169,0.00385284,0.056572,0.0559235,-0.0359344
20,4,0.052681,0.000762939,0.0511169,0.0492859,-0.00991821
21,0,0.0821686,-0.000534058,0.0380325,0.0417328,0.118446
21,1,0.062294,-0.000801086,0.0374222,0.0353622,0.178566
21,2,0.0774384,-0.00202179,0.0303268,0.0323105,0.169907
21,3,0.0824738,-0.00534058,0.0308609,0.0305176,0.165443
21,4,0.0538254,-0.0056839,0.031929,0.0358963,0.140686
22,0,-0.0217056,-0.00583649,0.030098,0.038681,0.117722
22,1,-0.0676346,-0.0125885,0.0303268,0.0379562,0.132294
22,2,-0.100746,-0.0156021,0.0317001,0.0374985,0.156479
22,3,-0.0894928,-0.0162888,0.0307465,0.0398254,0.149536
22,4,-0.0666046,-0.0111008,0.0274277,0.0397873,0.128288
23,0,-0.052948,-0.00991821,0.0241852,0.0366592,0.0925446
23,1,-0.0417328,-0.00514984,0.0237656,0.0361633,0.0569153
23,2,-0.0352859,-0.00209808,0.0251007,0.0349808,-0.00118256
23,3,-0.0255585,0.000572205,0.0244522,0.0362778,-0.0777817
23,4,-0.0128174,-0.00152588,0.0289536,0.0407791,-0.0815582
24,0,0.0310135,0.00102997,0.0393295,0.0503922,0.0195313
24,1,0.0667191,0.00854492,0.0470352,0.0587463,0.137215
24,2,0.0631332,0.0157547,0.0492477,0.0606918,0.105896
24,3,0.0532913,0.0193024,0.0551605,0.0617981,0.0344086
24,4,0.0606537,0.020752,0.0566101,0.0641632,-0.0312805
25,0,0.0607681,0.0194931,0.0583649,0.0638962,-0.0161362
25,1,0.0593185,0.0200272,0.0543594,0.0608444,0.0252914
25,2,0.0598526,0.013237,0.0484085,0.0568771,0.0140381
25,3,0.0264359,0.00946045,0.0421143,0.0520325,-0.0301361
25,4,-0.036087,0.00125885,0.038414,0.0450134,-0.0454712
26,0,-0.0693512,-0.00457764,0.0309372,0.046196,-0.0574875
26,1,-0.0974655,-0.00370026,0.0272369,0.0405502,-0.0399017
26,2,-0.0827408,-0.00629425,0.0209427,0.0363159,0.0101852
26,3,-0.0712585,-0.00843048,0.0209427,0.0367355,0.0859833
26,4,-0.0457382,-0.017662,0.0182724,0.0378799,0.162392
27,0,-0.0136566,-0.0222397,0.0284576,0.0375366,0.167809
27,1,0.0131607,-0.0224686,0.0310516,0.03479,0.182114
27,2,0.0292587,-0.0186539,0.0272369,0.0355911,0.177498
27,3,0.0276566,-0.0147629,0.0297165,0.0392532,0.0951004
27,4,0.0219727,-0.00812531,0.0348282,0.0434113,-0.0862503
28,0,0.0183487,0.000839233,0.0490189,0.0495529,-0.172272
28,1,-0.0173187,0.00961304,0.0475693,0.0473404,-0.08358
28,2,-0.0309372,0.0153732,0.0494003,0.0444412,-0.0798035
28,3,-0.014534,0.0167465,0.0511932,0.0432587,0.0240326
28,4,0.0186157,0.01297,0.0542831,0.0458908,0.102577
29,0,0.0428772,0.0134659,0.0512314,0.0466537,0.0283813
29,1,0.0597382,0.0115204,0.0458527,0.0433731,0.0402832
29,2,0.0608444,0.00648499,0.0413132,0.0418091,0.0317764
29,3,0.0503159,0.00301361,0.0378036,0.0374985,0.0595856
29,4,0.0329208,0.00629425,0.0322342,0.0382233,0.121727
30,0,0.00946045,0.00255585,0.0304413,0.033989,0.150452
30,1,-0.00514984,0.00125885,0.0308228,0.0304413,0.1511
30,2,-0.0126266,0.000534058,0.0298691,0.0266647,0.128403
30,3,-0.0256348,0.00366211,0.0273132,0.0260162,0.0933075
30,4,-0.0312042,0.00247955,0.0255585,0.0267792,0.0508881
31,0,-0.0302124,-0.000953674,0.0301361,0.0301361,0.0166702
31,1,-0.031929,0.000991821,0.030098,0.0333405,-0.0421524
31,2,-0.0266647,0.00408173,0.031929,0.0315857,-0.0421906
31,3,-0.0244522,0.0038147,0.0368118,0.0352478,0.0337219
31,4,-0.0156021,-0.00240326,0.0418472,0.0383759,0.0902557
32,0,0.00774384,-0.00724792,0.0395584,0.0396729,0.162239
32,1,-0.00301361,-0.0104523,0.0382233,0.038147,0.125999
32,2,-0.00740051,-0.0165176,0.0413513,0.0447464,0.111237
32,3,0.00461578,-0.0217438,0.0468826,0.0574493,0.0684357
32,4,0.000991821,-0.0194168,0.0526047,0.0651169,0.0326538
33,0,-0.0295639,-0.0142288,0.0501633,0.0667572,0.0256348
33,1,-0.0371552,-0.0110626,0.0484085,0.0654221,0.0286102
33,2,-0.0448227,-0.00816345,0.0452423,0.0572205,0.0108719
33,3,-0.0419235,-0.00335693,0.0387192,0.0535965,0.0333405
33,4,-0.0102615,0.00900269,0.0336075,0.0526428,0.069809
34,0,0.0111008,0.00827789,0.0335693,0.0483704,0.0290298
34,1,0.0356674,0.00724792,0.0336838,0.04776,-0.0217056
34,2,0.0551605,0.00579834,0.0334549,0.0477219,-0.0786591
34,3,0.0510788,0.00511169,0.0338745,0.0512695,-0.0825119
34,4,0.0301743,-0.000190735,0.0358582,0.0514603,-0.0314713
35,0,0.0310516,-0.00972748,0.0365067,0.0506592,0.109024
35,1,0.0437546,0.0144958,0.0325394,0.0517654,0.12413
35,2,0.0273895,0.0336075,0.0370789,0.0505066,0.0342941
35,3,0.00453949,0.0247192,0.0413513,0.0547028,0.00427246
35,4,-0.00511169,0.0128555,0.0355911,0.0506592,0.0140762
36,0,0.000228882,-0.0275803,0.0341797,0.0484467,0.0620651
36,1,0.0121689,-0.0144577,0.0376129,0.0491333,0.085907
36,2,0.00888824,0.0304031,0.0332642,0.0432587,0.0136948
36,3,0.00274658,0.0109482,0.0296021,0.0378418,0.00640869
36,4,-0.00713348,-0.00743866,0.0293732,0.0373459,0.0621414
37,0,-0.0172806,0.0719833,0.0312042,0.035553,0.0818634
37,1,-0.0153732,0.104942,0.032692,0.0372696,0.0935745
37,2,-0.01194,0.0174713,0.0342178,0.0380707,0.129623
37,3,-0.0128555,-0.0337982,0.03479,0.0348663,0.113907
37,4,-0.00953674,-0.0448227,0.0363922,0.0335693,0.0896072
38,0,-0.00804901,-0.0823593,0.0336838,0.0285721,0.0918579
38,1,-0.00598907,-0.106773,0.0305176,0.0242996,0.170441
38,2,-0.00896454,-0.0722885,0.0318527,0.0251389,0.0418854
38,3,-0.00671387,-0.10437,0.030632,0.0321198,-0.127487
38,4,-0.00705719,-0.0419998,0.0353622,0.0383759,-0.190964
39,0,-0.00286102,0.0334167,0.0439453,0.0440598,-0.104294
39,1,-0.00366211,0.0424194,0.0473022,0.0471497,0.100288
39,2,-0.00537872,0.0366592,0.0483322,0.0540161,0.156174
39,3,-0.00267029,0.0279617,0.0447464,0.0501633,0.0323105
39,4,0.00301361,0.0263596,0.039978,0.0453568,-0.0128174
40,0,0.00286102,0.0242615,0.0351715,0.0420761,-0.00362396
40,1,0.00377655,0.0247955,0.0315857,0.0408554,0.0774384
40,2,0.00278473,0.0260162,0.0366592,0.0455093,0.0844955
40,3,0.0025177,0.0144958,0.0389862,0.0486374,0.0730133
40,4,0.00297546,0.00892639,0.037384,0.0479889,0.134506
41,0,0.00400543,0.00743866,0.0344849,0.0460815,0.0802994
41,1,0.0043869,-0.00286102,0.034523,0.042305,0.0721359
41,2,0.00450134,-0.00423431,0.035553,0.0381851,0.0750351
41,3,0.00541687,0.00522614,0.0388336,0.0422668,0.0716019
41,4,0.00564575,0.0450516,0.0365067,0.0410461,0.0608444
42,0,0.00148773,0.0405884,0.0363541,0.044136,0.0574875
42,1,0.00244141,0.0143814,0.0383759,0.0466156,0.0519562
42,2,0.00282288,0.010643,0.0391006,0.0474548,0.035553
42,3,-0.00209808,0.0352859,0.033493,0.0478363,0.0244141
42,4,-0.000572205,0.0330353,0.0343704,0.0456238,0.016861
43,0,0.000762939,-0.00965118,0.0356293,0.0408936,0.0251007
43,1,0.000305176,-0.0232697,0.0356293,0.0429535,0.0471115
43,2,0.00358582,-0.0234604,0.0357056,0.0465393,0.0728226
43,3,0.000190735,0.00385284,0.0331116,0.043602,0.0858307
43,4,0.00293732,0.0349808,0.0281525,0.0390244,0.0645065
44,0,0.00293732,-0.0363159,0.0244904,0.0339508,0.0566101
44,1,0.00461578,-0.0774384,0.0238037,0.036087,0.0608444
44,2,0.00297546,-0.042305,0.0328064,0.0409698,0.0345612
44,3,0.000152588,-0.0363541,0.0417709,0.0456238,0.00404358
44,4,0.00289917,-0.0255585,0.0537109,0.0572968,0.00297546
45,0,-0.00038147,-0.0198746,0.0582504,0.0602341,0.0129318
45,1,-0.00263214,-0.0152588,0.054512,0.0572205,-0.0359344
45,2,-0.00144958,-0.0131607,0.0512314,0.0536346,0.0294113
45,3,-0.00377655,-0.0115204,0.0455856,0.0478745,0.0367355
45,4,-0.00389099,-0.00591278,0.0453568,0.0448608,0.0123978
46,0,-0.0012207,-0.00240326,0.0462723,0.0456619,0.0355911
46,1,-0.00106812,0.0012207,0.0444412,0.0437546,0.0102234
46,2,-0.000343323,0.0345993,0.03582,0.0399399,0.0209808
46,3,3.81E-05,0.0435257,0.0324631,0.0357437,0.018158
46,4,-0.00141144,0.0104523,0.0313187,0.0342178,0.0433731
47,0,-0.00225067,0.00656128,0.0300598,0.0392151,0.0607681
47,1,-0.000190735,0.00354767,0.0279617,0.0382614,0.059967
47,2,-0.00675201,0.00190735,0.023613,0.0296783,0.0664139
47,3,-0.00659943,0.00141144,0.0214386,0.0309753,0.064621
47,4,0.000457764,0.00511169,0.024147,0.0383759,0.0284576
48,0,0.00160217,0.0075531,0.0333023,0.0455475,-0.00720978
48,1,0.00160217,0.0143814,0.0375366,0.0429916,0.103111
48,2,0.00213623,0.0307083,0.0378799,0.0398636,0.25528
48,3,0.00411987,0.0144577,0.0393295,0.0386047,0.293236
48,4,0.00267029,0.00324249,0.0452423,0.0434875,0.173225
49,0,0.00282288,-0.0069046,0.0505829,0.0559235,-0.0166702
49,1,0.00240326,-0.0145721,0.0527954,0.0606537,-0.173759
49,2,0.00144958,-0.0348282,0.0466919,0.0534058,-0.18322
49,3,-0.00160217,-0.00305176,0.0368118,0.0447845,-0.00152588
49,4,-0.000762939,0.00404358,0.0287247,0.0414658,0.111008
50,0,0.00396729,0.0019455,0.0283051,0.0442886,0.156441
50,1,0.00232697,0.00473022,0.0278473,0.0473785,0.179863
50,2,-0.000267029,0.00659943,0.0307465,0.0455856,0.09758
50,3,0.000572205,0.0082016,0.0339508,0.044632,-0.142441
50,4,0.000190735,0.00591278,0.0419617,0.044899,-0.341034
51,0,0.000801086,0.0063324,0.0494766,0.0508499,-0.219498
51,1,-3.81E-05,0.00709534,0.0531387,0.0498962,-0.0217438
51,2,-0.00358582,0.00087738,0.0500488,0.0447845,0.143242
51,3,-0.0043869,-0.00240326,0.043869,0.0411606,0.141068
51,4,-0.00347137,-0.00267029,0.0376511,0.0390244,0.152893
52,0,-0.000495911,-0.00362396,0.0309753,0.0324249,0.155754
52,1,0.000724792,-0.00740051,0.0257492,0.0361252,0.151978
52,2,0.00247955,-0.00579834,0.0286484,0.0386429,0.148544
52,3,0.00160217,-0.00396729,0.0265503,0.0376892,0.130272
52,4,0.00213623,-0.00110626,0.0289536,0.044136,0.110855
53,0,-0.00038147,-0.000190735,0.0296021,0.0458145,0.0904083
53,1,0.00125885,-0.00110626,0.0310516,0.0437927,0.075264
53,2,0.0018692,-0.000839233,0.0310135,0.0427246,0.0591278
53,3,0.00343323,-0.00202179,0.033493,0.0476456,0.0460052
53,4,0.00221252,-0.00278473,0.0373077,0.0502396,0.0334549
54,0,0.0019455,0.000686646,0.0363922,0.0473022,0.0281525
54,1,0.00141144,0.00255585,0.0330353,0.0439072,0.0228882
54,2,0.0019455,0.00289917,0.0350189,0.0440979,0.0282669
54,3,0.00160217,0.00164032,0.0408936,0.0465393,0.0274658
54,4,-0.000686646,-0.00164032,0.0419617,0.0485611,0.0510025
55,0,0.00038147,-0.00457764,0.0427246,0.0458527,0.0801468
55,1,0.00164032,-0.00499725,0.0424576,0.0431824,0.0960159
55,2,-0.000991821,-0.00865936,0.0416946,0.041008,0.0619507
55,3,-0.00228882,-0.00518799,0.042038,0.0398254,-0.0183487
55,4,-0.00141144,-0.0018692,0.0387955,0.0422668,-0.115433
56,0,-0.00152588,0.00541687,0.0389862,0.0396729,-0.0988007
56,1,-0.00263214,0.0243378,0.0392532,0.0417328,0.0296021
56,2,-0.000610352,0.0225067,0.0383377,0.0441742,-0.0133896
56,3,-3.81E-05,0.00961304,0.0384903,0.0419998,0.00179291
56,4,-0.00175476,0.0191879,0.0355148,0.0386047,0.0775146
57,0,-0.000534058,0.00164032,0.0366974,0.0416183,0.0849152
57,1,-0.000534058,-0.0421906,0.0387955,0.0416946,0.0774384
57,2,0.00106812,0.0056839,0.0362778,0.0389099,0.0514221
57,3,0.00179291,0.0227356,0.038681,0.0412369,0.0178146
57,4,0.00221252,-0.0149918,0.0370026,0.0415421,0.0457001
58,0,0.00198364,-0.0762558,0.0404358,0.0418472,0.166168
58,1,0.00106812,-0.0292969,0.0406265,0.0431824,0.158882
58,2,0.000343323,0.0600815,0.0390625,0.0440216,0.075798
58,3,0.00457764,0.0542068,0.0384521,0.0395584,-0.0344467
58,4,0.00328064,-0.0062561,0.0328445,0.0352478,-0.0798798
59,0,0.00453949,-0.0279617,0.0250244,0.0298691,-0.0469971
59,1,0.00171661,-0.0798416,0.0259018,0.0302887,0.0562286
59,2,0.000495911,-0.102806,0.0398636,0.0448227,0.115471
59,3,0.000267029,-0.00652313,0.0506973,0.0555038,0.124512
59,4,0.000534058,0.030632,0.0605011,0.0647736,0.132065
60,0,0.000534058,0.0495529,0.0542068,0.0647736,0.043335
60,1,-0.00110626,0.0444794,0.0492096,0.0610733,-0.0137329
60,2,0.000724792,0.0242996,0.0370789,0.0572205,-0.0405121
60,3,-0.00160217,-0.0277328,0.0293732,0.0528336,0.0127029
60,4,0.00125885,0.0289917,0.0261688,0.050087,0.045433
61,0,0.00205994,0.0629807,0.0256729,0.0460815,0.0415802
61,1,0.00125885,0.129128,0.0280762,0.0465393,0.125694
61,2,0.000190735,-0.00862122,0.0269318,0.0470734,0.266342
61,3,0.000305176,-0.0175095,0.0213242,0.0431061,0.213928
61,4,-0.00179291,-0.0348282,0.021286,0.0382233,-0.104561
62,0,-0.000801086,-0.041008,0.0251007,0.043335,-0.228958
62,1,-0.00179291,0.000305176,0.026474,0.0474167,-0.0865936
62,2,-0.000915527,0.00205994,0.0360107,0.0530243,0.0837708
62,3,-0.00148773,-0.00598907,0.0456238,0.0524139,0.07267
62,4,-0.0012207,-0.00988007,0.0515366,0.0483322,-0.0156403
63,0,-0.00110626,0.0018692,0.0531387,0.0479889,0.00988007
63,1,-0.00205994,0.00232697,0.0507355,0.0407791,0.103683
63,2,0.000152588,-0.0223541,0.0424576,0.034256,0.122223
63,3,0.00038147,-0.0140762,0.0408173,0.0354004,0.0857162
63,4,-0.001297,-0.00133514,0.0396729,0.0342178,0.0733185
64,0,-0.00217438,0.00434875,0.0337601,0.0303268,0.0712585
64,1,0.000762939,-0.0112152,0.0305939,0.0280762,0.0940704
64,2,0.00270844,-0.0143814,0.0256729,0.0285721,0.102463
64,3,-0.00125885,0.0140762,0.0214386,0.0226974,0.117302
64,4,0.00183105,0.123177,0.0274658,0.0265884,0.163383
65,0,-0.00114441,0.0260544,0.0352859,0.0383759,0.188675
65,1,-3.81E-05,-0.0695038,0.0458527,0.0439835,0.0241852
65,2,0.00499725,-0.0727463,0.0509644,0.0496292,-0.283661
65,3,0.00415802,-0.0343704,0.0494003,0.0524902,-0.34729
65,4,0.00339508,-0.0174332,0.0435257,0.0499725,-0.0976181
66,0,0.00205994,-0.0233078,0.0362778,0.0462723,0.0793076
66,1,0.000228882,-0.0312424,0.0339127,0.0449371,0.136757
66,2,-0.00114441,0.00896454,0.0349045,0.0429153,0.150414
66,3,0.00087738,0.0217438,0.041275,0.0415802,0.174637
66,4,0.00141144,0.0476456,0.0450516,0.0407028,0.135002
67,0,0.001297,0.0336075,0.0388718,0.03685,0.018425
67,1,0.00614166,0.0793457,0.0383377,0.0349426,0.0114822
67,2,0.0056076,0.0457382,0.0368118,0.039444,0.0731659
67,3,0.00507355,-0.100098,0.0317383,0.0396347,0.0276566
67,4,-0.000686646,-0.0455475,0.038147,0.0431824,0.0842285
68,0,-0.00900269,0.0330353,0.0392532,0.0455093,0.0613785
68,1,-0.00740051,-0.0106812,0.0423813,0.0484085,-0.0103378
68,2,-0.0043869,-0.0856781,0.0459671,0.0508118,0.00740051
68,3,-0.00339508,-0.044632,0.0378418,0.0465012,0.0740433
68,4,-0.00350952,0.0166321,0.0338745,0.0403595,0.0716782
69,0,-0.00415802,0.0322723,0.0324249,0.040741,0.0474167
69,1,-0.00286102,0.0136185,0.0294113,0.0411606,0.045433
69,2,-0.0012207,0.0305557,0.0261688,0.0402832,0.0977325
69,3,-0.00198364,0.074501,0.0253677,0.0418472,0.0914001
69,4,-0.000991821,0.0998306,0.0201797,0.0437164,0.0963593
70,0,0.00038147,0.065155,0.0167847,0.0408173,0.111656
70,1,0.00141144,-0.0392532,0.0291443,0.0504684,0.107422
70,2,-0.000343323,0.00141144,0.0355911,0.058403,-0.00682831
70,3,0.000991821,-0.0488281,0.0457764,0.0659561,-0.12413
70,4,0.00114441,-0.179977,0.055542,0.0687408,-0.112915
71,0,0.0019455,-0.241127,0.0532913,0.0692749,0.0710678
71,1,0.00450134,-0.176086,0.0490189,0.0567627,0.136223
71,2,0.00358582,0.187073,0.0437927,0.0395203,0.0916672
71,3,0.00530243,0.198212,0.0406647,0.0374222,0.0532532
71,4,0.00598907,0.0596237,0.0383759,0.0391388,0.0299454
72,0,0.00839233,0.119057,0.0366211,0.0378799,0.0110626
72,1,0.00919342,0.25322,0.0380325,0.0391769,0.0325394
72,2,0.00587463,0.111046,0.0409317,0.0362015,-0.00968933
72,3,0.00610352,-0.213661,0.0390244,0.0383377,-0.118637
72,4,-3.81E-05,-0.163574,0.0403595,0.0362778,-0.0846481
73,0,-0.0030899,-0.0973129,0.037384,0.0372314,0.0401688
73,1,-0.00469208,-0.00743866,0.0345993,0.0383377,0.110779
73,2,-0.00637054,0.0664902,0.0343704,0.0411987,0.103493
73,3,-0.00595093,0.0389481,0.0333786,0.0408554,0.103111
73,4,-0.00583649,0.0330734,0.0321579,0.0437546,0.101624
74,0,-0.00541687,-0.0296021,0.0363159,0.0432205,0.0865936
74,1,0.000534058,-0.00339508,0.0340652,0.0427246,0.0737
74,2,-0.00293732,-0.0536728,0.0357437,0.042572,0.0681305
74,3,-0.00247955,-0.179367,0.0353241,0.0422668,0.0609589
74,4,-0.00522614,-0.119972,0.0318146,0.0386047,0.0601578
75,0,-0.0050354,0.0809479,0.0302887,0.0403595,0.0602341
75,1,0.000953674,0.14679,0.0302505,0.0404739,0.0587845
75,2,0.00392914,0.0990677,0.0325775,0.0469208,0.0567627
75,3,0.000190735,0.0627899,0.0372696,0.0524139,0.0539017
75,4,0.00297546,-0.114059,0.0408173,0.0486374,0.0496674
76,0,0.00461578,-0.254555,0.0408173,0.0468826,0.0471115
76,1,0.00301361,-0.146675,0.0407791,0.045929,0.0217056
76,2,0.00175476,-0.042038,0.0428391,0.0483704,0.0106812
76,3,0.00221252,-0.00717163,0.0467682,0.0456238,0.0275421
76,4,0.00190735,0.0728607,0.0491333,0.0392532,0.0340652
77,0,0.00331879,0.179863,0.0485229,0.0292587,0.0465393
77,1,0.00549316,0.148048,0.0400162,0.0270081,0.0485229
77,2,0.00411987,0.0743866,0.0318146,0.0255966,0.0419617
77,3,0.00476837,0.197105,0.0360107,0.0305557,0.034256
77,4,0.00423431,0.162354,0.0456619,0.0436783,0.0422668
78,0,0.00404358,-0.171356,0.0502396,0.0543213,0.109024
78,1,0.00293732,-0.0115585,0.0440598,0.0527954,0.0773239
78,2,-0.00270844,0.208893,0.0364304,0.0468826,0.0271988
78,3,-0.00118256,0.0640106,0.0218201,0.0365448,0.111084
78,4,0.000228882,0.00965118,0.0124741,0.0278091,0.134277
79,0,-0.00312805,-0.152054,0.0162506,0.0312042,0.051384
79,1,-0.000267029,-0.123482,0.0287247,0.0441742,-0.0807953
79,2,0.00232697,0.000572205,0.0458908,0.0532532,-0.176086
79,3,-0.000343323,-0.186729,0.0587845,0.0695801,-0.192413
79,4,-0.000801086,-0.0946045,0.062294,0.0709534,-0.111732
80,0,-0.00267029,0.104408,0.0588989,0.065918,0.252571
80,1,-0.00164032,0.118752,0.0540924,0.0598907,0.445938
80,2,0.00289917,0.105438,0.0411987,0.0432968,0.18219
80,3,0.00614166,-0.0362778,0.0281525,0.0311279,-0.0888062
80,4,0.00419617,-0.0379562,0.0257874,0.032196,-0.16983
81,0,-0.00312805,0.223961,0.032196,0.0419998,0.0390244
81,1,-0.0031662,0.0798798,0.0375366,0.0511169,0.0959015
81,2,0.000152588,-0.0461197,0.0296021,0.0498199,0.0119781
81,3,-0.00419617,-0.367203,0.0246811,0.047226,0.00793457
81,4,-0.00740051,-0.44487,0.0222015,0.0395584,0.0252914
82,0,-0.00469208,0.0528336,0.0267792,0.0389481,0.0538254
82,1,0.001297,0.178299,0.0244522,0.03685,0.121231
82,2,0.000114441,0.102882,0.0265503,0.0403976,0.18074
82,3,0.00110626,-0.0355148,0.0271606,0.0419617,0.270271
82,4,0.00305176,-0.0862503,0.0322723,0.0415802,0.256729
83,0,0.00152588,-0.0523758,0.0388336,0.0418091,0.00671387
83,1,0.0025177,-0.0307083,0.0400925,0.0452805,-0.321503
83,2,-0.0031662,-0.0576019,0.0421143,0.0499725,-0.32402
83,3,-0.00247955,-0.0388718,0.0476837,0.0511551,-0.0388718
83,4,0.000991821,0.00556946,0.0443649,0.0457001,0.0463486
84,0,0.00583649,0.0617218,0.0341797,0.0393677,0.0717163
84,1,0.00396729,0.0727844,0.026741,0.0310898,0.0550461
84,2,-0.000419617,0.0357056,0.0191879,0.0217056,0.0825119
84,3,-0.00160217,-0.016861,0.0178528,0.0244141,0.161362
84,4,-0.00183105,0.0867844,0.0317383,0.0344086,0.249367
85,0,-0.000648499,0.0722122,0.0482559,0.0496292,-0.00957489
85,1,0.00160217,-0.00667572,0.0588226,0.0690842,-0.122528
85,2,0.00495911,0.030098,0.0656891,0.077858,0.256844
85,3,0.00606537,0.127983,0.0609589,0.0709534,0.359268
85,4,0.0111389,0.030632,0.0362015,0.0437164,0.206985
86,0,0.0104141,-0.164566,0.0157166,0.0246811,0.230064
86,1,0.00713348,-0.191956,0.00473022,0.0109482,0.257607
86,2,-0.000228882,0.00961304,0.00869751,0.0139999,-0.0405884
86,3,-0.0134277,0.0689697,0.0222015,0.0339508,-0.424805
86,4,-0.0223923,0.0656891,0.0397873,0.0516129,-0.750961
87,0,-0.0145721,0.134621,0.0623322,0.0723648,-0.34626
87,1,-0.00514984,0.071907,0.0646973,0.0764465,0.191612
87,2,0.00453949,0.0279617,0.0512314,0.0573349,0.252228
87,3,0.00682831,0.0260925,0.0466537,0.0527191,0.0773239
87,4,0.00137329,0.0556564,0.0372314,0.0463104,0.0211716
88,0,-0.00564575,0.0291443,0.0255966,0.0406647,0.0825119
88,1,-0.0114822,-0.014534,0.0191116,0.029335,0.191956
88,2,-0.0140381,-0.0164413,0.0261688,0.0291824,0.298424
88,3,-0.0234222,-0.0140762,0.0322723,0.0239182,0.400925
88,4,-0.0220108,-0.00946045,0.0299835,0.0211334,0.320473
89,0,-0.00190735,-0.0127029,0.0368881,0.0311279,0.18528
89,1,0.0182343,-0.0217056,0.0427628,0.0439072,0.195541
89,2,0.0340271,-0.0138474,0.0511551,0.0533676,-0.181046
89,3,0.0461578,0.0069046,0.0462723,0.0492859,-0.325279
89,4,0.0482941,-0.0292587,0.0429916,0.0512314,-0.104866
90,0,0.0361252,-0.0659561,0.0333405,0.0392914,0.026207
90,1,0.0183868,-0.0623322,0.0230408,0.0318909,0.000457764
90,2,-0.001297,-0.0407028,0.0184631,0.0237274,-0.254555
90,3,-0.00980377,-0.0312424,0.0297928,0.0371933,-0.424309
90,4,-0.020752,-0.0297928,0.0412369,0.0489426,-0.0676727
91,0,-0.037384,-0.0267792,0.0518417,0.0566483,0.497665
91,1,-0.0428772,0.0069046,0.0613022,0.0629044,0.327377
91,2,-0.0198364,0.0389099,0.0479126,0.0453186,-0.125389
91,3,0.00137329,0.00240326,0.0315475,0.0320435,-0.275841
91,4,0.0181961,0.00087738,0.031395,0.0357056,0.28286
92,0,0.0163269,0.0075531,0.0402069,0.0458527,0.507622
92,1,-0.00148773,0.0218201,0.047226,0.0547791,0.0792313
92,2,-0.00106812,0.0628662,0.041008,0.0514984,-0.186729
92,3,-0.00411987,0.0350952,0.0479126,0.0563812,0.158463
92,4,0.000724792,-0.0108719,0.0406647,0.043602,0.394058
93,0,0.0019455,-0.0271606,0.0287247,0.0292969,-0.197372
93,1,-0.0109482,-0.0182724,0.0327301,0.0364685,-0.831718
93,2,-0.0101089,-0.00923157,0.0440598,0.0520325,-0.137787
93,3,-0.000991821,-0.0104904,0.0558472,0.0616837,0.440063
93,4,0.00816345,-0.00770569,0.054512,0.0597382,0.251236
94,0,0.014801,-0.000686646,0.0430298,0.0510406,0.223007
94,1,0.00335693,-0.00102997,0.0375366,0.0460052,0.132904
94,2,-0.00846863,-0.00728607,0.0363541,0.0419235,0.0398254
94,3,-0.0222778,-0.00488281,0.0317001,0.0417328,0.181732
94,4,-0.0219345,-0.00488281,0.0249863,0.0373077,0.197067
95,0,-0.000991821,-0.0031662,0.0244141,0.0365448,0.157318
95,1,0.0152969,0.00167847,0.0276566,0.038681,0.120697
95,2,0.0233078,0.00492096,0.0270462,0.0373077,0.106964
95,3,0.00953674,0.00659943,0.0289154,0.0379944,0.0871658
95,4,-0.0152206,0.00537872,0.0298691,0.0431824,0.0624466
96,0,-0.0106049,0.00843048,0.0320816,0.0483704,0.0387955
96,1,-0.00175476,0.0119781,0.0307846,0.0485992,0.0270462
96,2,0.00514984,0.0127029,0.0361633,0.0558472,0.0423813
96,3,0.000152588,0.00957489,0.0370789,0.0556183,0.0379181
96,4,0.00679016,0.0105286,0.0354385,0.0357437,-0.02388
97,0,0.00793457,0.00717163,0.0372314,0.0263214,-0.156136
97,1,-0.00816345,0.00320435,0.042038,0.0291061,-0.150642
97,2,-0.00831604,-0.00137329,0.0410461,0.0371933,0.0298691
97,3,0.00370026,-0.000267029,0.0433731,0.0364685,0.0403976
97,4,0.0012207,-0.00442505,0.0463867,0.0416565,-0.00133514
98,0,-0.00175476,0.0044632,0.0447845,0.0401306,-0.0204468
98,1,0.0162125,0.00995636,0.0517273,0.0264359,-0.0227356
98,2,0.0239563,0.00946045,0.0540161,0.0304413,-0.00793457
98,3,0.0417328,0.013504,0.0238037,0.0476837,0.00267029
98,4,0.0305557,0.0109482,0.001297,0.0490189,0.00865936
99,0,0.000801086,0.00167847,-0.000190735,0.0501251,0.0199127
99,1,-0.00926971,-0.0107574,-0.0069046,0.0524139,0.0261307
99,2,0.00225067,-0.0154877,0.0138855,0.0689316,0.0402451
99,3,0.000724792,-0.0265121,0.0537109,0.0716019,0.0627518
99,4,-0.02285,-0.0287628,0.0503922,0.0602722,0.066452
100,0,-0.0484467,-0.0216675,0.0527573,0.0567627,0.0605392
100,1,-0.0748444,-0.00736237,0.0389481,0.0160217,0.0606155
100,2,-0.0582886,0.00152588,0.0325394,0.0167847,0.0572205
100,3,-0.00968933,0.00362396,0.0364685,0.00850677,0.0597763
100,4,0.0104141,0.00434875,0.0094986,0.00427246,0.0597382
101,0,0.0270844,0.0107574,0.0284576,0.0220108,0.0586319
101,1,0.0418854,0.0172424,0.0728607,0.0502777,0.0773621
101,2,0.0437164,0.00801086,0.0637817,0.0717926,0.0896835
101,3,0.0283432,0.00549316,0.0407791,0.0668335,0.102158
101,4,0.0142288,0.00873566,0.0376892,0.0585175,0.10479
102,0,-0.0170898,0.00694275,0.0483704,0.0666428,0.0910187
102,1,-0.00312805,0.00583649,0.0762177,0.087204,0.0714493
102,2,0.0366974,0.00873566,0.124588,0.115967,0.054245
102,3,0.0447845,0.00518799,0.107689,0.0986099,0.0419235
102,4,0.0295258,0.000724792,0.0688171,0.0696182,0.0487518
103,0,-0.00610352,-0.00770569,0.0335693,0.0894928,0.0704193
103,1,-0.0432205,-0.00782013,0.0305557,0.109673,0.0625992
103,2,-0.0384903,-0.0019455,-0.000572205,0.148582,0.0457764
103,3,-0.000839233,0.00469208,-0.0284958,0.100708,0.0390244
103,4,0.0183105,0.00179291,0.001297,-0.115089,0.0397491
104,0,0.0250244,-0.000610352,0.0756454,-0.218658,0.0406647
104,1,0.02285,-0.00537872,0.144463,-0.1157,0.038147
104,2,-0.0012207,-0.00915527,0.0523758,-0.0545883,0.0257874
104,3,-0.00717163,-0.00938416,-0.0794983,-0.0656509,0.0297546
104,4,0.00953674,0.00167847,0.0346756,-0.0606155,0.0428772
105,0,-0.000572205,0.00591278,0.0516891,0.0128174,0.0481415
105,1,-0.0479507,0.00125885,0.100136,0.201607,0.0374222
105,2,-0.0704956,-0.00183105,0.0871658,0.316544,0.0299835
105,3,-0.0657654,-0.00476837,0.0408936,0.273285,0.0102615
105,4,-0.0505066,-0.00324249,0.0651932,0.102272,-0.0031662
106,0,-0.0236893,-0.0082016,0.00450134,-0.104332,0.00202179
106,1,-0.00663757,-0.0235367,-0.0329208,-0.17498,0.0161362
106,2,-0.00236511,-0.0171661,0.0274658,-0.14576,0.0218582
106,3,0.0255966,0.00141144,-0.0163651,-0.0811386,0.0433731
106,4,0.0683212,0.0151825,-0.0906754,0.0554276,0.0506592
107,0,0.0650787,0.0112534,-0.0885773,0.192833,0.0576782
107,1,0.0415039,0.00537872,0.0835037,0.210495,0.0671768
107,2,0.0165558,-0.00217438,0.0984573,0.123749,0.065918
107,3,0.0203705,-0.0043869,-0.0151062,-0.0320053,0.0709152
107,4,0.0177383,0.00305176,-0.159798,-0.0607681,0.0825119
108,0,-0.0164032,0.0114441,-0.260124,0.0411987,0.0768661
108,1,-0.0390625,0.00713348,-0.106506,0.0870514,0.0655746
108,2,-0.0304794,0.00160217,0.027504,0.131302,0.0667953
108,3,-0.00862122,0.00717163,0.168304,0.191727,0.0699234
108,4,0.00587463,0.00564575,0.157928,0.19001,0.0449371
109,0,0.0266266,0.0114822,0.186806,0.116348,0.0194931
109,1,0.0344849,0.0102615,0.231552,0.0948715,0.0109863
109,2,0.0196075,-0.00183105,0.205193,0.0214005,0.0116348
109,3,-0.0465775,-0.0137711,0.186081,-0.021553,0.0292587
109,4,-0.0432968,-0.00583649,0.183144,0.0283813,0.0402451
110,0,0.00656128,0.001297,0.133362,0.0359726,0.0418854
110,1,0.033493,0.0030899,-0.0562286,0.055275,0.0351334
110,2,0.0400543,-0.00461578,-0.0722504,0.0691605,0.0361252
110,3,0.000610352,-0.00415802,-0.00747681,0.00675201,0.0461578
110,4,-0.0317764,0.000839233,-0.0650787,-0.0181198,0.0614166
111,0,-0.0523758,0.00167847,0.0263977,0.0396347,0.0563049
111,1,-0.0500488,0.000801086,0.0261688,0.0908661,0.0622177
111,2,-0.00278473,0.00240326,0.182457,-0.0012207,0.0520706
111,3,0.0210571,0.00247955,0.102577,-0.116463,0.0369263
111,4,0.0354767,0.00514984,0.0450516,-0.10643,0.0398254
112,0,0.0435257,0.00255585,-0.113258,-0.165901,0.0236511
112,1,0.0683212,0.00930786,-0.0645065,-0.158653,0.0191498
112,2,0.0563812,0.014267,0.271072,-0.0503159,0.0370407
112,3,0.0358582,0.0119781,0.148773,0.0212479,0.0399017
112,4,0.00778198,0.00965118,-0.144806,-0.0151443,0.051384
113,0,-0.0185776,0.000114441,-0.278664,-0.00396729,0.0566483
113,1,-0.0617599,-0.00232697,-0.204086,0.110016,0.0662231
113,2,-0.0856781,-0.0111008,-0.0897598,0.260239,0.0882339
113,3,-0.0879669,-0.0227737,-0.0185776,0.334053,0.0876617
113,4,-0.090065,-0.0320053,0.219002,0.351639,0.0626373
114,0,-0.0523758,-0.0334549,0.29892,0.433311,0.0514221
114,1,-0.0156784,-0.0154114,0.282326,0.588951,0.0149918
114,2,-0.0113678,-0.00640869,0.344505,0.579834,-0.0240326
114,3,0.033493,0.000724792,0.317383,0.181694,-0.0250244
114,4,0.0544357,0.0262451,0.139198,-0.683937,0.00164032
115,0,0.0475311,0.026207,-0.414505,-0.999336,0.0371552
115,1,0.0338745,0.0172806,-0.39238,-0.820084,0.0531006
115,2,0.0250626,0.0118256,-0.14019,-0.269585,0.0667572
115,3,0.0182724,0.00102997,0.103989,0.0956726,0.0785065
115,4,0.0168228,-0.00732422,0.0848007,0.21965,0.0904465
116,0,0.0345993,-0.00923157,0.033226,0.311241,0.078125
116,1,0.0439835,-0.0126648,0.231819,0.491714,0.0674057
116,2,0.0247574,-0.0151443,0.434875,0.591049,0.0603485
116,3,-0.00259399,-0.0167084,0.028801,0.48027,0.0574112
116,4,-0.0133896,-0.00221252,-0.29541,0.119705,0.0385284
117,0,-0.0127792,0.0631332,-0.211906,0.0298309,0.0120544
117,1,-0.00865936,0.052681,0.245895,0.233688,0.00579834
117,2,-0.0165176,-0.00648499,0.249214,0.238152,0.00125885
117,3,-0.0208664,-0.0148773,0.0459671,-0.397568,-0.00629425
117,4,-0.0239563,-0.0164032,-0.115891,-0.876999,0.0174332
118,0,-0.0239944,-0.0115204,-0.414276,-0.729942,0.0453568
118,1,-0.0163269,-0.0101089,-0.215912,-0.356674,0.0690842
118,2,-0.00160217,-0.0113297,-0.132103,0.0353241,0.067215
118,3,0.0374222,-0.0105667,0.0217056,0.290222,0.0532532
118,4,0.0350952,-0.00827789,0.0977325,0.252838,0.0429153
119,0,-0.00995636,-0.00507355,0.162277,0.16243,0.0453568
119,1,-0.0319672,0.0184631,0.0907898,0.141029,0.0490189
119,2,-0.0333786,0.0618362,0.163116,0.236664,0.0520325
119,3,-0.014534,0.0292206,0.300789,0.307884,0.0591278
119,4,-0.00465393,-0.00850677,0.284004,0.393906,0.0575256
120,0,-0.00354767,-0.0423431,0.294724,0.403938,0.0556564
120,1,0.0137711,-0.0539398,0.341034,0.343895,0.0479126
120,2,-0.0102997,-0.0513458,0.206909,0.250893,0.0334167
120,3,-0.0317383,-0.049324,-0.0375366,0.0740433,0.0259018
120,4,-0.00892639,-0.0418854,-0.164337,-0.10025,0.0244141
121,0,0.00133514,-0.0428009,-0.115967,-0.0200653,0.0180435
121,1,0.0094223,-0.0349808,-0.00431061,0.0553131,0.0115585
121,2,0.0126648,0.00324249,0.0244904,0.166626,0.0247955
121,3,0.0136566,0.0806427,0.0667191,0.118027,0.0393677
121,4,0.0166321,-0.00785828,0.0806046,0.00255585,0.0561905
122,0,0.0151443,0.0319672,-0.0527954,0.00385284,0.0650406
122,1,0.0114822,0.199699,-0.0421143,-0.0656891,0.0587082
122,2,0.0122833,0.237885,0.0785828,-0.212631,0.0634003
122,3,0.00980377,0.0900269,-0.262985,-0.317802,0.0586319
122,4,0.00789642,-0.13237,-0.18158,-0.293617,0.069313
123,0,0.00492096,-0.118332,0.0175476,-0.250397,0.0812531
123,1,0.0030899,-0.0918961,0.284958,-0.39032,0.0717163
123,2,-0.00202179,-0.00293732,0.135384,-0.323486,0.0643158
123,3,0.000953674,-0.0278854,-0.0497437,-0.0131226,0.0642395
123,4,-0.00148773,-0.08461,-0.0218964,0.157051,0.0644684
124,0,-0.00484467,0.00366211,-0.0922775,0.194092,0.0475693
124,1,-0.0025177,0.050621,-0.0970459,0.214233,0.0298691
124,2,-0.001297,-0.0673294,-0.00389099,0.237808,0.0231171
124,3,-0.000991821,-0.14164,0.0523376,0.235863,0.0287628
124,4,-0.00164032,0.247078,0.0869751,0.229416,0.0304794
125,0,-0.00171661,0.215378,0.107803,0.228806,0.0379562
125,1,-0.00267029,-0.07164,0.108566,0.221939,0.0393295
125,2,-0.000305176,-0.0246048,0.0864792,0.196533,0.0352859
125,3,-0.00167847,0.0524139,0.102272,0.162086,0.0328827
125,4,-0.000724792,0.0151062,0.104408,0.134583,0.0373077
126,0,-0.00114441,0.0160599,-0.0129318,0.114441,0.0389481
126,1,-0.00324249,0.00362396,-0.000801086,0.0882339,0.0485992
126,2,-0.001297,-0.0755692,0.0983429,0.0735092,0.0497818
126,3,-0.00125885,-0.0951385,0.11673,0.0387955,0.0479507
126,4,0.00087738,-0.0960159,0.00995636,-0.0030899,0.0344086
127,0,0.00301361,-0.100746,-0.108414,-0.00766754,0.0205612
127,1,0.00144958,-0.0791168,-0.0885773,-0.0401306,0.0176239
127,2,0.00118256,-0.0352097,0.0128174,-0.0392914,0.030899
127,3,0.00598907,0.092926,0.0748825,-0.0112534,0.0421143
127,4,0.00297546,0.185928,0.118828,-0.00297546,0.0476074
128,0,0.00274658,-0.0805283,0.0992966,-0.0162125,0.059433
128,1,0.00225067,-0.127602,0.147552,-0.0233078,0.0617599
128,2,0.0037384,-0.120163,0.179596,-0.0465393,0.0638962
128,3,0.000267029,-0.00862122,0.209465,-0.0284195,0.0782013
128,4,0.00106812,0.00102997,-0.0111389,-0.0425339,0.0707626
129,0,0.00263214,-0.0439453,0.00728607,-0.0497437,0.0607681
129,1,-0.000152588,-0.0528717,-0.0798416,-0.0157928,0.0423431
129,2,-0.00556946,-0.0116348,-0.216599,0.0304031,0.0354004
129,3,-0.00320435,-0.130043,-0.198631,0.0481415,0.0421524
129,4,0.000724792,-0.144234,-0.0750732,0.0572586,0.0449371
130,0,-0.00118256,0.126724,0.0445938,0.0573349,0.0413513
130,1,0.00499725,0.0629044,0.0853348,0.0521851,0.0379181
130,2,0.00465393,0.016098,0.11982,0.0628281,0.0391769
130,3,0.00102997,0.756836,0.129509,0.0753021,0.0437546
130,4,-0.00141144,0.877266,0.122833,0.0792694,0.0435257
131,0,-0.00209808,0.0951385,0.115395,0.0825882,0.0407028
131,1,-0.000572205,-0.0168991,0.106277,0.0853348,0.0416946
131,2,0.000305176,-0.0720215,0.0933456,0.0852966,0.0415039
131,3,0,-0.156975,0.0862503,0.0810242,0.0473404
131,4,0.00434875,-0.278358,0.0727463,0.0761032,0.0429535
132,0,0.00495911,-0.46032,0.0616074,0.0769043,0.0415802
132,1,0.00286102,-0.583458,0.0528336,0.0816345,0.0431442
132,2,0.000839233,0.210228,0.0416946,0.0840759,0.0419617
132,3,0.00164032,0.313911,0.0265503,0.0758362,0.0357437
132,4,0.00190735,-0.0301743,0.019455,0.0593185,0.0361633
133,0,0.00179291,-0.0296402,0.0242996,0.0513458,0.0405121
133,1,0.000801086,0.128136,0.0220108,0.0380707,0.0386047
133,2,-0.00312805,0.0475311,0.0232697,0.0247955,0.0450897
133,3,-0.00324249,-0.0437546,0.0208282,0.00892639,0.0463104
133,4,-0.00423431,-0.16407,0.0165939,-0.001297,0.042038
134,0,-0.00175476,-0.114861,0.015831,0.0185013,0.0406265
134,1,-0.00190735,-0.0876617,0.0148392,0.0369644,0.0505447
134,2,0.00171661,-0.106964,0.0152969,0.0392914,0.0535583
134,3,-0.000991821,-0.272942,0.0105286,0.0449753,0.0498199
134,4,-0.00312805,-0.334167,0.0109482,0.0476456,0.0470352
135,0,-0.00259399,-0.220451,0.0167465,0.0485992,0.0483704
135,1,-0.00133514,-0.0951004,0.019455,0.0474167,0.0434113
135,2,0.00125885,0.0525284,0.0220108,0.0440979,0.0463486
135,3,0.00770569,0.212326,0.0283813,0.0421906,0.0496674
135,4,0.0111389,0.313225,0.0273895,0.0378036,0.0540543
136,0,0.00999451,0.530548,0.0282669,0.0361633,0.0494003
136,1,0.00705719,0.168991,0.0311661,0.0344467,0.0462341
136,2,0.00240326,-0.00896454,0.0314331,0.0354767,0.0469589
136,3,-0.00110626,-0.0145721,0.0354385,0.042572,0.0447083
136,4,-0.00598907,0.240288,0.0378036,0.0462723,0.0527573
137,0,-0.00202179,0.234299,0.0402069,0.0452423,0.0513077
137,1,0.000915527,0.122528,0.0403595,0.0481415,0.0492859
137,2,-0.000190735,-0.0115967,0.040741,0.049057,0.0468445
137,3,-0.00232697,-0.108719,0.0426865,0.047226,0.0434875
137,4,-0.00476837,-0.110779,0.0442123,0.0412369,0.0464249
138,0,-0.00106812,-0.104065,0.0450897,0.0462723,0.0442505
138,1,-0.00171661,-0.103035,0.0443268,0.0495911,0.0429153
138,2,-0.00232697,-0.0957489,0.0437927,0.0483322,0.0331497
138,3,-0.00312805,-0.0855255,0.0430298,0.0484848,0.0375748
138,4,-0.00118256,-0.0748444,0.0436401,0.0444794,0.0401306
139,0,-0.00297546,-0.0637817,0.0429153,0.0462341,0.0377274
139,1,-0.00236511,-0.0534058,0.0436401,0.044632,0.0415421
139,2,-0.00419617,-0.0439453,0.0404739,0.0473404,0.0436783
139,3,-0.00396729,-0.0381851,0.0412369,0.0475311,0.0410843
139,4,-0.00236511,-0.0292206,0.0392151,0.0475311,0.0435638
140,0,0.00350952,-0.0177002,0.0424576,0.0431824,0.0465012
140,1,0.00583649,-0.000953674,0.0402832,0.0426102,0.0477219
140,2,0.0082016,0.0112152,0.0389481,0.0397491,0.0435257
140,3,0.00785828,0.0181961,0.0377655,0.0418854,0.0427628
140,4,0.00392914,0.0269699,0.0348663,0.0370789,0.0477982
141,0,0.00377655,0.0343704,0.0350952,0.0374222,0.0530243
141,1,0.00282288,0.03685,0.0343323,0.0370407,0.0544357
141,2,0.00732422,0.0394058,0.0314713,0.0339127,0.0505447
141,3,0.0162888,0.0463486,0.0321579,0.0363922,0.0509644
141,4,0.0178146,0.0452042,0.0358963,0.0448227,0.0488663
142,0,0.0114822,0.0406265,0.0392914,0.046196,0.0323486
142,1,0.00335693,0.0328064,0.036087,0.0488281,0.0182724
142,2,-0.00385284,0.0213623,0.0405121,0.0497437,0.016861
142,3,-0.00926971,0.0139618,0.0393677,0.0527954,0.0444412
142,4,-0.0125122,0.00652313,0.0352478,0.0472641,0.0644684
143,0,-0.0139618,-0.001297,0.0298309,0.0360107,0.093956
143,1,-0.0141907,-0.0050354,0.0272751,0.0286865,0.0915527
143,2,-0.00984192,-0.00843048,0.0274658,0.0288773,0.0804901
143,3,-0.00526428,-0.010376,0.0350571,0.0353622,0.0584412
143,4,-0.00141144,-0.00900269,0.0356293,0.0410461,0.0154495
144,0,7.63E-05,-0.00598907,0.0415421,0.0444031,0.00740051
144,1,0.00198364,-0.00614166,0.0439072,0.0462341,0.0229263
144,2,0.00648499,-0.00160217,0.0474548,0.0442886,0.0235748
144,3,0.00617981,0.00205994,0.0465012,0.0404358,0.0239563
144,4,0.00202179,0.00270844,0.0370026,0.0388336,-0.00244141
145,0,-0.0019455,-0.00038147,0.0394058,0.0357437,0.0183868
145,1,-0.00598907,-0.00926971,0.043602,0.0415039,0.0350189
145,2,0.000915527,-0.0155258,0.0432587,0.039978,0.0422287
145,3,0.00263214,-0.0133896,0.0396729,0.0417328,0.0573349
145,4,0.00202179,-0.0128174,0.0359726,0.0492096,0.0439835
146,0,0.00152588,-0.0111008,0.037384,0.0539017,0.101814
146,1,0.00236511,-0.0114822,0.0383759,0.058136,0.0701523
146,2,0.00198364,-0.00873566,0.0377274,0.0576782,0.0205994
146,3,0.00156403,-0.00904083,0.0304413,0.0514603,0.0583649
146,4,-0.00205994,-0.010376,0.0278091,0.0494766,0.134354
147,0,0.00617981,-0.00801086,0.0295258,0.049057,0.0147247
147,1,0.00858307,-0.00663757,0.0344849,0.0519943,-0.0535965
147,2,0.000686646,-0.00526428,0.0401688,0.0573349,-0.0419235
147,3,-0.00431061,-0.00797272,0.0402069,0.0534821,0.102119
147,4,-0.00770569,-0.0100327,0.0355148,0.0428391,0.25238
148,0,0.00244141,-0.0082016,0.0338364,0.0408936,0.241699
148,1,0.0166702,0.000915527,0.0370026,0.0385284,0.124702
148,2,0.017395,0.00976563,0.0367737,0.0340271,-0.130424
148,3,0.00934601,0.0180817,0.0414276,0.0352859,-0.23407
148,4,-0.000610352,0.0170898,0.0498962,0.0415421,-0.0658035
149,0,-0.0120544,0.00896454,0.051918,0.0377655,0.087204
149,1,-0.0139999,0.00255585,0.0486755,0.0366211,0.0542068
149,2,-0.0102615,-0.00225067,0.04776,0.036087,0.0426483
149,3,-0.00740051,-0.00293732,0.0466919,0.0413895,0.0662994
149,4,-0.0104904,-0.000991821,0.0413895,0.0374985,0.0805283
150,0,-0.00946045,0.00141144,0.0408936,0.0337601,0.101547
150,1,0.00175476,0.0019455,0.0378418,0.0370789,0.0963211
150,2,0.000991821,-0.00110626,0.0328445,0.0350571,0.0444412
150,3,0.00747681,0.00400543,0.032692,0.0339508,-0.0062561
150,4,0.0110245,0.0104523,0.0318146,0.0379181,0.0062561
151,0,0.0103378,0.0125122,0.0307846,0.0397491,0.0197983
151,1,0.00629425,0.00976563,0.0327682,0.0434113,-0.00732422
151,2,3.81E-05,0.00541687,0.032959,0.047493,0.0147247
151,3,-0.00175476,0.00732422,0.0317001,0.0450897,0.0175476
151,4,-0.00530243,0.0056839,0.0314331,0.0459671,0.0511932
152,0,-0.00831604,0.00488281,0.0273514,0.0489426,0.114479
152,1,-0.00972748,0.00259399,0.0238419,0.0462723,0.21534
152,2,-0.00572205,0.0018692,0.0240326,0.043602,0.242157
152,3,-0.00766754,-0.00247955,0.0227356,0.0458527,0.149307
152,4,-0.0037384,-0.00385284,0.0250626,0.0505066,-0.0487518
153,0,-0.000419617,-0.00450134,0.0296021,0.0532532,-0.125999
153,1,0.00324249,-0.00347137,0.0336838,0.0552368,-0.053215
153,2,0.00648499,-0.00213623,0.0399017,0.0612259,-0.0496292
153,3,0.00770569,0.000572205,0.0439072,0.0580597,-0.025177
153,4,0.00499725,0.0037384,0.0429535,0.0556946,0.0292206
154,0,0.00667572,0.00324249,0.0409317,0.0541687,0.141029
154,1,0.00350952,-0.00297546,0.0385284,0.0507736,0.135345
154,2,0.00240326,-0.00656128,0.0408936,0.0467682,-0.00907898
154,3,-3.81E-05,-0.00694275,0.0400925,0.0432587,-0.0675201
154,4,0.00202179,-0.00797272,0.0401688,0.0469208,0.0338364
155,0,0.00144958,-0.00537872,0.0421524,0.0452805,0.0885391
155,1,0.00595093,-0.00682831,0.0432205,0.0401306,0.0842667
155,2,0.00583649,-0.00595093,0.0432968,0.0365448,0.0946808
155,3,0.00492096,-0.00259399,0.043602,0.0387192,0.145149
155,4,0.00301361,-0.0012207,0.0505447,0.0409317,0.104485
156,0,-0.00141144,-0.0018692,0.0495529,0.042572,0.0531769
156,1,-0.00221252,-0.00335693,0.0430679,0.0427246,0.0652695
156,2,0.000419617,-0.00282288,0.042572,0.0426483,0.0037384
156,3,0.000762939,-0.00286102,0.0386047,0.0401306,-0.0465393
156,4,-0.00244141,0.00087738,0.0350952,0.0370789,-0.0258255
157,0,-0.00232697,0.00385284,0.0345993,0.0395203,0.0699997
157,1,0.000495911,0.00499725,0.0323486,0.0346756,0.132561
157,2,-0.0012207,0.00896454,0.0271988,0.0281143,0.0812149
157,3,-0.00457764,0.00537872,0.0285721,0.0246048,-0.0343323
157,4,-0.00808716,0.0069809,0.029335,0.0505447,-0.150108
158,0,-0.00682831,0.00289917,0.0361633,0.0759506,-0.0452423
158,1,-0.00732422,0.00476837,0.0482178,0.0492477,0.122566
158,2,-0.00812531,0.00255585,0.0627518,0.0386429,0.142174
158,3,-0.00782013,-0.00167847,0.053978,0.0613403,0.0642014
158,4,-0.00823975,-0.00358582,0.051651,0.0774002,0.062561
159,0,-0.00217438,-0.000152588,0.0460434,0.0592041,0.0582504
159,1,-0.00114441,-0.00106812,-0.0189972,-0.0304794,-0.0585556
159,2,-0.00144958,-0.000419617,-0.0245667,-0.0678253,-0.0274277
159,3,0.000152588,0.000228882,0.0720215,-0.0203323,0.0906754
159,4,0.000991821,0.00289917,0.101128,0.0368118,0.119858
160,0,-0.00198364,0.00144958,0.00907898,0.0295258,0.144081
160,1,-0.000305176,0.00133514,0.00984192,0.0416183,0.137405
160,2,0.00843048,-0.000343323,0.0257874,0.0544739,0.197487
160,3,0.0153351,-0.000610352,0.0302124,0.0697708,0.201073
160,4,0.0183487,0.000572205,0.0172806,0.0813675,0.175858
161,0,0.0134277,0.0012207,0.0125885,0.0838852,0.0701523
161,1,0.00896454,-0.000267029,0.0399017,0.0773239,-0.131989
161,2,0.0107956,0.000686646,0.0444412,0.0715256,-0.315132
161,3,0.0063324,0.00370026,0.0416946,0.0675583,-0.191689
161,4,0.00694275,7.63E-05,0.0474548,0.0588989,0.138168
162,0,0.0025177,0.0019455,0.106583,0.0580597,0.214157
162,1,0.0031662,0.00331879,0.241165,0.057106,0.0122833
162,2,0.0129318,0.00293732,0.0840759,0.0618362,-0.20401
162,3,0.0087738,0.0019455,-0.0209427,0.0566483,-0.227089
162,4,0.0182724,-0.000228882,0.0551605,0.060997,-0.0156403
163,0,0.017128,-0.00087738,-0.0600815,0.0694656,0.162277
163,1,0.0174713,-0.00259399,-0.550194,0.0701141,0.198746
163,2,0.00999451,-0.00652313,-0.101128,0.0772095,0.169296
163,3,-0.00255585,-0.00415802,0.104103,0.0554657,0.13504
163,4,-0.0177765,-0.0069809,0.146446,-0.00881195,0.116119
164,0,-0.0193787,-0.00759125,0.162659,-0.0230789,0.104752
164,1,-0.0123596,-0.0050354,0.139427,-0.00396729,0.0872803
164,2,-0.0117493,-0.00469208,0.154457,0.00751495,0.0542068
164,3,-0.0127411,-0.001297,0.178108,0.0204468,0.0440598
164,4,-0.00854492,-0.00232697,-0.0660324,0.00938416,0.0658798
165,0,0.000114441,0.000228882,-0.100021,-0.0233459,0.0774002
165,1,-0.0129318,7.63E-05,0.114517,-0.00801086,0.0570679
165,2,-0.011673,0.00160217,0.0659943,0.0349426,0.0258255
165,3,0.0183487,0.00343323,0.0575256,0.0575638,0.00610352
165,4,0.032692,0.00411987,0.0811005,0.0664902,0.019455
166,0,0.00408173,0.00442505,0.0840759,0.0669098,0.027504
166,1,-0.0149918,0.00480652,0.0788116,0.0663757,0.0178146
166,2,-0.036087,0.00289917,0.0717926,0.0678253,0.00648499
166,3,-0.0760269,0.00297546,0.0599289,0.0696564,-0.00274658
166,4,-0.089035,0.00244141,0.0479507,0.0665665,0.0302505
167,0,-0.0843811,0.00427246,0.0411606,0.0623703,0.0290298
167,1,-0.0557327,0.00782013,0.0334549,0.055809,0.0287247
167,2,-0.047226,0.0100327,0.0268173,0.0511169,0.0409698
167,3,-0.0113678,0.00915527,0.0196075,0.0471115,0.0672913
167,4,0.0262451,0.00404358,0.0152206,0.0382996,0.0954056
168,0,0.0540161,0,0.0111389,0.03479,0.112457
168,1,0.0941467,0.000343323,0.0153351,0.042572,0.0812149
168,2,0.116348,-0.00213623,0.0227356,0.0510025,0.0296021
168,3,0.119743,-0.00209808,0.0253296,0.0538635,-0.0384903
168,4,0.0936508,-0.0031662,0.0261307,0.053215,0.0133133
169,0,0.057869,-0.00442505,0.025444,0.0517654,0.135765
169,1,0.015831,-0.00431061,0.0221634,0.0447083,0.0234222
169,2,-0.0180817,-0.00553131,0.0218201,0.0398636,-0.0693893
169,3,-0.0457764,-0.0043869,0.0206757,0.0361633,-0.0256348
169,4,-0.0571442,-0.00488281,0.0165939,0.0383759,-0.0254822
170,0,-0.0569153,-0.00873566,0.0164795,0.0372314,0.0116348
170,1,-0.0299835,-0.00804901,0.0171661,0.0347137,0.0721359
170,2,0.0204086,-0.00770569,0.0216675,0.0399399,0.122757
170,3,0.0110245,-0.00396729,0.0258255,0.0478745,0.149727
170,4,0.0248718,-0.0019455,0.0310516,0.0476456,0.0805283
171,0,0.0340271,-0.00213623,0.0366211,0.0484848,0.0667191
171,1,0.0597,0.000267029,0.0395203,0.0487137,0.080986
171,2,-0.0123978,0.000457764,0.0395966,0.0506973,0.0219727
171,3,-0.0518417,-0.000686646,0.0463867,0.0521851,-0.00675201
171,4,-0.0487518,-0.00110626,0.0461197,0.049324,0.0314331
172,0,-0.0102234,0.000343323,0.0478363,0.0489044,0.011673
172,1,-0.0130844,0.00583649,0.0494003,0.0477219,0.0142288
172,2,-0.0328827,0.0113297,0.0528336,0.0442505,0.0583267
172,3,-0.0686646,0.0134277,0.0535965,0.0428009,0.122528
172,4,-0.065155,0.0122452,0.0416946,0.036087,0.0608826
173,0,-0.0330353,0.0106049,0.0379562,0.0384903,-0.013237
173,1,0.00923157,0.00869751,0.0399399,0.0380707,-0.0312042
173,2,0.0282669,0.00480652,0.0416183,0.0369644,0.0413895
173,3,0.0640106,0.00728607,0.0435638,0.0414658,0.0358582
173,4,0.0781631,0.00652313,0.0464249,0.0460815,0.120239
174,0,0.0390625,0.00862122,0.0520706,0.0477982,0.199928
174,1,-0.00770569,0.0108337,0.0508118,0.0475311,0.182266
174,2,-0.0075531,0.0140381,0.0470352,0.0427628,0.159607
174,3,0.04879,0.0125122,0.0428391,0.0347137,0.0639725
174,4,0.0527954,0.0145721,0.0367737,0.0331497,0.00640869
175,0,0.0453186,0.00774384,0.0373459,0.0365448,-0.00640869
175,1,0.0520706,-0.0025177,0.0413132,0.0380707,-0.00919342
175,2,0.0328064,-0.00926971,0.0415039,0.0365067,-0.0282669
175,3,-0.0210953,-0.017662,0.0402451,0.0366592,-0.0368881
175,4,-0.0794601,-0.0242233,0.0444794,0.0383759,-0.0283432
176,0,-0.115509,-0.0297165,0.0444031,0.0363922,-0.0550461
176,1,-0.102005,-0.0343704,0.0372696,0.0386429,-0.0350571
176,2,-0.0696564,-0.0365829,0.0380707,0.0402451,-0.00663757
176,3,-0.0247955,-0.0364304,0.0315857,0.041275,0.0194931
176,4,0.00797272,-0.0301361,0.0305939,0.0402832,0.0476837
177,0,0.0169754,-0.0231171,0.0300217,0.0419998,0.0687408
177,1,0.0344849,-0.0177002,0.0290298,0.0413132,0.0811768
177,2,0.0387955,-0.00686646,0.0323868,0.0443268,0.0767517
177,3,0.0313187,0.00675201,0.0338364,0.0507355,0.0757217
177,4,0.0675964,0.0138855,0.0341415,0.0505066,0.0987244
178,0,0.0394821,0.0247574,0.0327682,0.0518799,0.137825
178,1,0.0104523,0.0325394,0.0325012,0.0524139,0.15583
178,2,-0.00762939,0.0327682,0.0344849,0.0531006,0.143204
178,3,-0.0360107,0.0305557,0.0347137,0.0458527,0.0857162
178,4,-0.0662231,0.0295258,0.0315475,0.0479889,-0.0313187
179,0,-0.0752258,0.0250626,0.0278473,0.0478745,-0.138855
179,1,-0.0818634,0.0182343,0.0275421,0.0459671,-0.115738
179,2,-0.0548935,0.0119781,0.0335312,0.0509644,0.00450134
179,3,-0.00522614,0.00572205,0.0385666,0.0572586,0.0606918
179,4,0.0301743,-0.000534058,0.0430298,0.0554276,0.0843048
180,0,0.0504684,-0.00423431,0.0432968,0.0503159,0.105438
180,1,0.0638962,-0.0069046,0.039444,0.0428772,0.0262451
180,2,0.055275,-0.00713348,0.0372314,0.0418472,-0.0188065
180,3,0.0432587,-0.00652313,0.0402069,0.0435257,-0.00450134
180,4,0.0508118,-0.0087738,0.0360489,0.0431824,0.0488281
181,0,0.0491714,-0.00278473,0.0346375,0.0400925,0.11898
181,1,0.0520325,0.00747681,0.0334167,0.035553,0.154762
181,2,0.0331497,0.0110626,0.0333786,0.032196,0.150146
181,3,0.0117111,0.00900269,0.0340271,0.0319672,0.133324
181,4,-0.00389099,0.00637054,0.0361252,0.0339508,0.0992584
182,0,-0.0154877,-0.00385284,0.0352859,0.0367737,0.107956
182,1,-0.0364685,-0.00984192,0.0403595,0.0342178,-0.00564575
182,2,-0.0646591,-0.0160599,0.045929,0.0416183,-0.118027
182,3,-0.0696945,-0.0200653,0.0474548,0.0410843,-0.0190353
182,4,-0.0502777,-0.0234604,0.0469208,0.0418091,0.118675
183,0,-0.0406647,-0.0223541,0.044899,0.0392151,0.0806046
183,1,-0.0118637,-0.0201797,0.0421906,0.0349045,-0.0114822
183,2,0.0453186,-0.0211334,0.0391769,0.0364685,0.0192261
183,3,0.0432587,-0.0260544,0.0393677,0.042572,0.0145721
183,4,0.033493,-0.0139236,0.0389481,0.042038,0.0177765
184,0,0.0182724,0.00312805,0.0354767,0.0384903,0.0215149
184,1,-0.0149918,0.00911713,0.0353241,0.0403214,0.0380325
184,2,-0.0576782,0.0147247,0.0301361,0.0368881,0.044632
184,3,-0.0719833,0.0221634,0.0271225,0.0346756,0.00709534
184,4,-0.0488663,0.019989,0.0223923,0.0394821,0.0301743
185,0,-0.00423431,0.0175858,0.0274277,0.0445175,0.0822449
185,1,0.0278473,0.0212479,0.0349808,0.0530243,0.112343
185,2,0.0465775,0.0218201,0.0403976,0.0582886,0.100288
185,3,0.051651,0.014534,0.0463104,0.0616074,0.137825
185,4,0.0512695,0.00953674,0.0514603,0.0656128,0.104523
186,0,0.0389481,0.0181961,0.0482178,0.0605774,0.0663376
186,1,0.0264359,0.0338745,0.0418854,0.0484467,0.0666046
186,2,0.0192261,0.0185776,0.0338364,0.0450516,-0.0104523
186,3,0.0103378,-0.0185394,0.0340652,0.0440598,-0.0082016
186,4,0.00362396,-0.0259781,0.0335693,0.0432205,0.0188446
187,0,-0.000724792,-0.0318146,0.0345993,0.0414658,-0.0369644
187,1,-0.0030899,-0.00583649,0.0353622,0.0434494,-0.0832748
187,2,-0.00282288,0.000457764,0.0400162,0.043869,-0.0737762
187,3,-0.00652313,0.00953674,0.0388718,0.043869,0.00488281
187,4,-0.0075531,0.0349808,0.0348663,0.0392914,0.101166
188,0,-0.0106049,0.00347137,0.0313568,0.0368118,0.069809
188,1,-0.0114441,-0.0174713,0.0305557,0.0359726,0.033493
188,2,-0.0141907,-0.039978,0.0242615,0.0296402,-0.0199127
188,3,-0.0143433,-0.0653458,0.0293732,0.0317764,0.0370789
188,4,-0.0128555,-0.0597,0.0421906,0.0449371,0.0585556
189,0,-0.0146866,-0.0361252,0.049324,0.0482178,0.0484085
189,1,-0.0113297,0.00602722,0.0492477,0.0501251,0.080452
189,2,-0.00923157,-0.00762939,0.0495529,0.0537491,0.0674057
189,3,-0.00610352,0.00999451,0.0467682,0.0538635,0.0673294
189,4,-0.00556946,0.0973129,0.0375748,0.0480652,0.097847
190,0,-0.00408173,0.12188,0.0382233,0.0468826,0.111542
190,1,-0.00480652,0.0612259,0.0359344,0.0436783,0.0880814
190,2,-0.00179291,0.0187302,0.0379944,0.0463104,0.0753021
190,3,-0.00190735,-0.0144958,0.03685,0.0487518,0.0741959
190,4,-0.00789642,-0.0282288,0.0357056,0.0465012,0.0569534
191,0,-0.00640869,-0.0481415,0.0352097,0.0452423,0.0505066
191,1,0.00278473,-0.0508499,0.0342178,0.0439453,0.0503922
191,2,0.0037384,-0.0308228,0.0363159,0.0450897,0.049324
191,3,0.00553131,-0.0152969,0.0393677,0.0458527,0.0589752
191,4,0.00637054,-0.0224686,0.0364304,0.0422287,0.0569534
192,0,0.00617981,-0.00793457,0.040741,0.0405121,0.0331497
192,1,0.00656128,0.0201797,0.0411224,0.0415802,0.0202942
192,2,0.00656128,0.0439453,0.0377655,0.0410843,0.0315475
192,3,0.00904083,0.0347137,0.0344849,0.0370026,0.0300217
192,4,-0.000343323,-0.0104141,0.0320816,0.0383377,0.0549698
193,0,-0.0102997,-0.0238037,0.0316238,0.0333405,0.101852
193,1,-0.0018692,-0.0234222,0.0283813,0.0305939,0.149727
193,2,0.00347137,-0.0118256,0.031929,0.0292206,0.140877
193,3,-0.00236511,-0.00614166,0.0399399,0.0372696,0.0293732
193,4,0.00621796,7.63E-05,0.0505066,0.0476074,-0.134888
194,0,0.0108719,0.00160217,0.0569534,0.0570297,-0.207329
194,1,0.0121307,0.000686646,0.0586319,0.0566101,-0.0738525
194,2,0.00774384,-0.000457764,0.0477982,0.052681,0.108223
194,3,0.00888824,0.00934601,0.0401688,0.0477219,0.13176
194,4,0.0135422,0.0137711,0.0374985,0.0469971,0.0298309
195,0,0.0148392,0.0114822,0.0337982,0.0461578,0.0317001
195,1,0.0115585,-0.00392914,0.032692,0.0426483,0.0167465
195,2,0.00221252,-0.00679016,0.0299454,0.043869,0.0119019
195,3,-0.0100327,-0.00488281,0.0366211,0.0427628,0.0044632
195,4,-0.0196075,-0.00125885,0.0338364,0.0458527,-0.00656128
196,0,-0.0183105,-0.00423431,0.0318146,0.0414276,0.0575256
196,1,-0.00442505,0.000915527,0.0274658,0.0376511,0.0891495
196,2,-0.00457764,0.00656128,0.0273895,0.0387955,0.123825
196,3,-0.00675201,0.00808716,0.0194168,0.0309753,0.174637
196,4,-0.00499725,0.0110245,0.0165558,0.0264359,0.154991
197,0,-0.00255585,0.00988007,0.019722,0.0267029,0.111694
197,1,-0.00286102,0.0056076,0.0251389,0.0297546,-0.0475693
197,2,-0.00106812,0.00453949,0.0322723,0.0390244,-0.15316
197,3,0.00228882,0.00175476,0.0305176,0.0432205,-0.0193405
197,4,0.0019455,-0.000648499,0.0357819,0.0465775,0.203781
198,0,-0.00171661,-0.00190735,0.0522995,0.0572586,0.174599
198,1,0.000915527,0.000457764,0.0630951,0.0652313,0.101814
198,2,-0.00198364,0.00225067,0.0621414,0.0585938,0.13298
198,3,0.00205994,0.00160217,0.0505447,0.050621,0.0136948
198,4,0.0179291,0.000686646,0.0470352,0.055275,-0.0870132
199,0,0.0216675,0.00274658,0.0479126,0.057373,-0.0884247
199,1,0.00831604,0.0012207,0.0388336,0.0573349,-0.0215912
199,2,-0.00911713,0.000343323,0.03685,0.0553894,0.0627518
199,3,-0.0163651,0.00171661,0.0355148,0.056839,0.0338364
199,4,-0.0134277,-0.00171661,0.0320435,0.0527191,0.0279617
200,0,-0.0082016,-0.00217438,0.0310516,0.0502396,0.0461578
200,1,0.00267029,-0.00247955,0.0318527,0.0468445,0.039711
200,2,0.00350952,-0.00469208,0.0295639,0.0423813,0.0355148
200,3,0.00190735,-0.0062561,0.0260162,0.0397491,0.0388336
200,4,-0.0030899,-0.00701904,0.0292969,0.0344086,0.0505447
201,0,-0.00694275,-0.0168991,0.0232315,0.024147,0.0731659
201,1,-0.00766754,-0.00980377,0.0237656,0.0236511,0.100594
201,2,0.00514984,0.0128937,0.0324249,0.0265121,0.112572
201,3,0.00480652,0.00118256,0.0421524,0.0348663,0.104904
201,4,0.00366211,-0.00587463,0.0505447,0.0450897,0.0880814
202,0,0.00217438,0.000343323,0.0572968,0.0522232,0.0675964
202,1,-0.00434875,0.00144958,0.0551224,0.0522614,0.0800705
202,2,-0.0082016,0.00247955,0.0460052,0.0471115,0.120468
202,3,-0.00244141,0.00144958,0.0388718,0.042572,0.125923
202,4,0.0038147,-0.00114441,0.0284195,0.0358582,-0.00270844
203,0,0.00789642,0.000686646,0.0205612,0.0312424,-0.059967
203,1,0.00663757,0,0.022583,0.0292587,-0.00221252
203,2,0.0101089,-0.00278473,0.0239944,0.0283813,-0.021286
203,3,0.00797272,0.0019455,0.029068,0.0315094,-0.265427
203,4,0.00789642,0.00495911,0.0397873,0.0366592,-0.188866
204,0,0.00621796,0.00545502,0.0538635,0.0501633,0.192833
204,1,0.0063324,0.00457764,0.0678635,0.058403,0.0992203
204,2,0.00190735,0.0069809,0.0605774,0.04879,-0.108795
204,3,0.00240326,0.00549316,0.0505066,0.0414658,0.00324249
204,4,0.00141144,0.0019455,0.0396729,0.0425339,0.124817
205,0,-0.00198364,0.00427246,0.0313187,0.0418854,0.208893
205,1,-0.000686646,0.00244141,0.0335693,0.0406265,0.206337
205,2,-0.00125885,0.00221252,0.0376892,0.0401688,0.129013
205,3,0.00743866,-0.00198364,0.0396347,0.0431061,-0.0561142
205,4,0.00514984,-0.0108719,0.0356674,0.0446701,-0.137901
206,0,0.0114059,-0.00892639,0.0349045,0.0434494,0.00926971
206,1,0.0082016,0.000572205,0.030632,0.0374603,0.118065
206,2,-0.00385284,0.000114441,0.0282669,0.0375366,0.163002
206,3,-0.0141907,0.00614166,0.0274658,0.0411606,0.221634
206,4,-0.0252533,0.00602722,0.030899,0.0459671,0.133858
207,0,-0.0279999,0.0069046,0.0252151,0.0482178,0.00415802
207,1,-0.0241089,-0.00160217,0.0242233,0.0484848,-0.000762939
207,2,-0.00984192,-0.00366211,0.0229645,0.0465393,0.0673294
207,3,0.000991821,0.00255585,0.0181961,0.0357819,0.134621
207,4,0.00274658,0.00267029,0.0150299,0.0285339,0.203094
208,0,-0.00556946,0.0094986,0.0365829,0.041008,0.149727
208,1,-0.0250626,0.0141907,0.052681,0.0540161,0.0239563
208,2,-0.0322723,0.00629425,0.058136,0.0590134,-0.0176239
208,3,0.0141907,0.000457764,0.0630188,0.0617981,-0.0437927
208,4,0.0260544,-0.0162888,0.0557709,0.062027,0.00747681
209,0,0.0208664,-0.00980377,0.0489044,0.0580597,0.00404358
209,1,0.0208664,0.00926971,0.0413513,0.0499725,-0.0437546
209,2,0.0177383,-0.0277328,0.0362396,0.0538635,-0.0355148
209,3,0.0194168,-0.0130844,0.034523,0.0530624,-0.00896454
209,4,0.0168991,-0.0518417,0.0359344,0.0509262,-0.00732422
210,0,0.0162506,-0.0937653,0.0354385,0.0444412,-0.0050354
210,1,0.012207,-0.00675201,0.0355148,0.0440598,0
210,2,0.0100327,0.0518799,0.0321198,0.0434113,0.00541687
210,3,0.00476837,0.0308228,0.0334549,0.0357437,0.0161362
210,4,0.00358582,0.010643,0.0325394,0.0366974,0.0214005
211,0,0.000915527,0.0411987,0.0299072,0.0372696,0.0253677
211,1,-0.00724792,0.00644684,0.0309753,0.043335,0.0657654
211,2,-0.01091,-0.0328445,0.0332642,0.0411987,0.072937
211,3,-0.00282288,-0.01194,0.0330353,0.0409698,0.0709915
211,4,-0.00175476,-0.0189972,0.0357437,0.0401306,0.0877762
212,0,-0.00732422,0.0254822,0.0374985,0.0421906,0.0824738
212,1,-0.00576019,0.086174,0.0362015,0.0413895,0.0590897
212,2,-0.00370026,0.0596237,0.0356674,0.0437927,0.0377274
212,3,-0.0043869,0.0387573,0.0354004,0.0455093,0.0415421
212,4,-0.00686646,-0.0173187,0.0402832,0.044899,0.04673
213,0,-0.00785828,-0.0626755,0.042038,0.0474548,0.0243759
213,1,-0.0038147,-0.0184631,0.0437546,0.0468445,0.0356674
213,2,-0.00144958,0.0161743,0.038414,0.038147,0.050354
213,3,-0.00675201,0.0397873,0.0289154,0.0281906,0.0984955
213,4,-0.00553131,0.0642014,0.0214767,0.0292206,0.139847
214,0,-0.00564575,0.0900269,0.0284576,0.0336838,0.14061
214,1,-0.0062561,0.022583,0.0358582,0.0365067,0.0899124
214,2,-0.00236511,-0.0506592,0.0440598,0.0421906,0.0417709
214,3,-0.00331879,-0.076561,0.0543976,0.0518799,0.0362396
214,4,-0.00267029,-0.125504,0.0561142,0.0530624,-0.0166702
215,0,0.00236511,0.0214767,0.0590897,0.0562668,-0.138512
215,1,0.0043869,-0.0458527,0.056076,0.0470734,-0.00946045
215,2,0.00343323,-0.0370789,0.0467682,0.0300217,0.140953
215,3,0.000534058,0.0409317,0.0308609,0.0138474,0.160561
215,4,0.0038147,0.0056076,0.0231934,0.0226212,0.195923
216,0,0.00556946,0.0756073,0.0308228,0.0372314,0.226555
216,1,0.00179291,-0.0327301,0.0354767,0.0482941,-0.0124359
216,2,0.00160217,-0.108376,0.0350189,0.051651,-0.307693
216,3,0.00537872,-0.00629425,0.0378799,0.0577545,-0.279121
216,4,0.00415802,-0.022583,0.0385666,0.0597,0.0577545
217,0,0.00537872,-0.0294495,0.0411987,0.0613403,0.0543213
217,1,0.00488281,0.0323486,0.0389862,0.0492859,-0.0590134
217,2,0.00202179,-0.0325775,0.0402069,0.0448608,-0.0233459
217,3,0.00171661,-0.0877762,0.0424576,0.0413895,0.0984192
217,4,0.000343323,-0.051918,0.0350952,0.0319672,0.20977
218,0,-0.00225067,0.167503,0.0266647,0.0274277,0.276413
218,1,0.000305176,0.115547,0.022583,0.0328064,0.191803
218,2,-0.00102997,0.0324631,0.0259018,0.0406647,-0.0598145
218,3,0.000572205,-0.0441742,0.0273895,0.0459671,-0.0814819
218,4,-0.000724792,-0.0902939,0.0326157,0.0508118,0.198441
219,0,-0.00354767,-0.0365067,0.0370789,0.0521469,0.244598
219,1,-0.00244141,-0.000305176,0.0367737,0.0524139,0.115318
219,2,-0.00133514,0.001297,0.0398636,0.0473022,0.0428772
219,3,0.000305176,0.0577164,0.0387955,0.0460052,0.0094986
219,4,0.000724792,0.136032,0.0368881,0.0454712,0.0203705
220,0,0.00511169,0.259247,0.0373459,0.0440598,0.0489426
220,1,0.00991821,0.264626,0.0378418,0.044136,0.0170517
220,2,0.00553131,-0.0254822,0.037384,0.0432587,-0.0268555
220,3,0.00427246,-0.269165,0.0335693,0.0443268,-0.00682831
220,4,0.00442505,-0.209122,0.0299454,0.0479126,0.0418472
221,0,0.0025177,-0.0984573,0.031662,0.0477982,0.0438309
221,1,0.00278473,-0.071373,0.0378418,0.0478745,0.0288773
221,2,0.00259399,-0.0499344,0.0421143,0.0434113,0.0266266
221,3,0.00476837,-0.068779,0.0439072,0.0395966,0.037117
221,4,0.00282288,0.0962448,0.0440979,0.0365067,0.0521469
222,0,0.00087738,0.07267,0.044632,0.0349808,0.0385666
222,1,-0.00583649,-0.0371933,0.0432587,0.0399017,0.00720978
222,2,-0.00701904,0.00221252,0.039444,0.0388336,0.0043869
222,3,-0.00270844,0.0562286,0.0350571,0.0443268,0.0355911
222,4,-0.0019455,0.185738,0.0348282,0.044632,0.0764465
223,0,-0.00350952,0.280609,0.0343323,0.0418091,-0.0299454
223,1,-0.00804901,0.262909,0.032692,0.0374603,-0.14492
223,2,-0.00804901,-0.0792694,0.0281143,0.0410461,0.0528717
223,3,-0.00823975,-0.496826,0.0284576,0.0410461,0.197678
223,4,-0.00659943,-0.342636,0.0307465,0.0448227,0.0312805
224,0,-0.00789642,-0.109482,0.0383759,0.0531006,-0.290527
224,1,-0.00526428,-0.0426865,0.0445175,0.0583267,-0.259666
224,2,-0.00255585,0.0836182,0.0502777,0.055542,0.106277
224,3,0.000114441,0.11116,0.04776,0.0524139,0.179291
224,4,0.00324249,-0.0101471,0.0430679,0.0430298,0.140114
225,0,0.00621796,-0.0217438,0.0368881,0.0304413,0.194969
225,1,0.00473022,0.0802612,0.0414658,0.0328064,0.20668
225,2,0.000991821,0.12291,0.0453186,0.0413513,0.196648
225,3,0.00400543,-0.125618,0.0418854,0.0476837,0.159912
225,4,0.00713348,-0.00102997,0.0395584,0.0464249,0.118828
226,0,0.0154495,0.106964,0.0440598,0.0521469,0.0425339
226,1,0.0122833,-0.0620651,0.0445557,0.0572205,0.02388
226,2,0.00350952,-0.209694,0.0399399,0.051384,0.0590897
226,3,0.00171661,-0.176926,0.0315475,0.0404739,0.119553
226,4,-0.000839233,-0.0986099,0.0174332,0.0272369,0.120811
227,0,-0.00564575,-0.0762558,0.0106049,0.0152588,0.146179
227,1,-0.0126648,-0.105476,0.0169373,0.0235367,0.280304
227,2,-0.00804901,0.171776,0.0330734,0.0305939,0.183411
227,3,0.00370026,0.368843,0.0456619,0.0405502,-0.326958
227,4,0.0030899,0.338211,0.0535965,0.0481033,-0.493546
228,0,0.00923157,0.294228,0.0601196,0.05867,-0.150795
228,1,0.0200272,0.422096,0.0548553,0.0600433,0.0273514
228,2,0.020256,0.084877,0.0463867,0.0569534,0.0256729
228,3,0.00938416,0.0600433,0.0404358,0.053978,0.059166
228,4,-0.00530243,-0.0277328,0.0362015,0.0520325,0.084343
229,0,-0.0141907,-0.102425,0.0355911,0.0507355,0.077095
229,1,-0.00915527,-0.116539,0.0365829,0.0494766,0.0613022
229,2,-0.00701904,-0.169754,0.0380325,0.0503159,0.118294
229,3,-0.00232697,-0.0303268,0.039711,0.0499725,0.0758743
229,4,0.00255585,-0.104065,0.0400543,0.0463486,0.00358582
230,0,0.00354767,-0.146751,0.0341034,0.0446701,0.0151062
230,1,-0.00873566,-0.101242,0.0253296,0.0390244,0.0386047
230,2,-0.0174332,-0.0847244,0.0154877,0.029335,0.20443
230,3,-0.00473022,-0.0823593,0.0205994,0.0323868,0.409813
230,4,0.00377655,-0.059433,0.0258636,0.0344467,0.318985
231,0,0.0105286,-0.0101089,0.0286484,0.0354385,0.307693
231,1,0.00629425,-0.0138474,0.0343704,0.0420761,0.623665
231,2,-0.0031662,-0.0795364,0.0324249,0.03582,0.0893402
231,3,-0.00263214,-0.112343,0.0405121,0.0405884,-0.695038
231,4,0.00106812,-0.1548,0.0437164,0.0396729,-0.681686
232,0,0.00377655,-0.0785065,0.0493622,0.0379181,-0.398026
232,1,0.0111389,-0.144043,0.0450134,0.0307465,-0.616112
232,2,-0.00617981,0.0102234,0.0360107,0.0280762,-0.209465
232,3,-0.0184631,0.159111,0.0498962,0.0380707,0.193329
232,4,-0.0130463,0.0661087,0.0518036,0.0441742,0.262146
233,0,-0.00839233,0.0327301,0.0451279,0.0437927,0.357895
233,1,-0.0107574,0.0307465,0.0426102,0.0444794,-0.0709534
233,2,-0.0157547,0.0386047,0.0411606,0.0531387,-0.0639343
233,3,-0.0101471,0.0439453,0.0366211,0.0538635,0.208817
233,4,0.00900269,0.0479507,0.0281525,0.0445938,0.208817
234,0,0.0124741,0.0424576,0.0214005,0.0414276,0.139351
234,1,0.018692,0.0432968,0.0193405,0.0444031,0.344162
234,2,0.0151825,0.0487137,0.0194931,0.0512314,0.442848
234,3,0.00038147,0.052681,0.0234985,0.0573349,0.286522
234,4,-0.00152588,0.0474167,0.028038,0.0667191,0.245209
235,0,0.00663757,0.0244141,0.029068,0.0695419,0.534744
235,1,0.00457764,0.0130081,0.0175476,0.0493622,0.197601
235,2,0.00957489,0.00953674,0.0102615,0.0307083,-0.308609
235,3,0.01091,0.0192642,0.0156403,0.0255585,-0.0387955
235,4,0.00354767,0.0143051,0.0257111,0.026474,0.098114
236,0,0.00923157,0.0173569,0.039444,0.0391769,-0.601006
236,1,0.00862122,0.0133133,0.0608063,0.0579834,-0.633087
236,2,-0.000915527,0.0094223,0.0672531,0.0582504,-0.407295
236,3,-0.0193787,0.0113297,0.0720215,0.0617981,-0.448647
236,4,-0.0510788,0.00419617,0.0765228,0.0620651,-0.00087738
237,0,-0.0338364,-0.0025177,0.0615692,0.0422287,0.520668
237,1,-0.00835419,0.00270844,0.0427628,0.0363922,0.318985
237,2,0.00850677,0.0151443,0.0381851,0.0393295,0.337524
237,3,0.0209808,0.0218582,0.0275421,0.038147,0.58876
237,4,0.0310135,0.0191116,0.02491,0.0413895,0.488129
238,0,0.0263214,0.00774384,0.0239182,0.0423813,-0.0214386
238,1,0.0274277,-3.81E-05,0.0230408,0.0278091,-0.239906
238,2,0.0249481,-0.00339508,0.0274277,0.0183868,0.31723
238,3,0.0130081,-0.00591278,0.0297165,0.0204086,0.482521
238,4,-0.00492096,-0.0181198,0.0357056,0.0275421,-0.173607
239,0,-0.0205231,-0.0294876,0.0370789,0.0263596,-0.485268
239,1,-0.0204849,-0.0369263,0.0479889,0.0411987,-0.520096
239,2,-0.0138855,-0.038681,0.0548935,0.0489044,-0.105171
239,3,-0.00457764,-0.0386429,0.0593567,0.0535965,0.174217
239,4,0.00114441,-0.0339127,0.0502014,0.0547791,-0.0350189
240,0,-0.0149155,-0.0444794,0.0408936,0.0540543,-0.195427
240,1,-0.0226974,-0.0563812,0.0468445,0.0613022,-0.179405
240,2,-0.0167465,-0.0379181,0.0466919,0.065155,0.00370026
240,3,-0.00770569,-0.017662,0.0362778,0.0565338,0.235023
240,4,-0.000801086,-0.00255585,0.0352097,0.0479126,0.306702
241,0,0.00335693,0.00881195,0.0328064,0.0421143,0.225449
241,1,0.00453949,0.0158691,0.0313568,0.0471115,0.270691
241,2,0.0130463,0.0198746,0.0392914,0.0485229,0.241165
241,3,0.0192642,0.0215149,0.0409698,0.0425339,0.187378
241,4,0.0125504,0.0205994,0.040741,0.0380325,0.129395
242,0,0.0107956,0.0136948,0.0327682,0.0307846,0.0957489
242,1,0.0244904,0.0110245,0.0137329,0.0279617,0.0788879
242,2,0.0282288,0.0104523,0.0143051,0.0426483,0.0405884
242,3,0.0358963,0.0107574,0.0215912,0.0429535,0.0308228
242,4,0.0119019,0.00411987,0.0209045,0.0401688,0.0157928
243,0,-0.0205994,-0.00785828,0.0385666,0.0400925,0.0043869
243,1,-0.0325775,-0.0199127,0.0512695,0.0256348,-0.00385284
243,2,-0.0374222,-0.0154877,0.0395584,0.020256,-0.015564
243,3,-0.0336838,-0.00141144,0.0195313,0.0247574,-0.0380325
243,4,-0.0270462,0.0101471,0.000534058,0.0320053,-0.065918
244,0,-0.0445175,0.0138092,-0.000228882,0.0567245,-0.0245667
244,1,-0.0233078,0.014267,-0.00572205,0.072403,0.0104523
244,2,0.0205231,0.0162888,0.0530624,0.103378,0.0416183
244,3,0.0469589,0.0200653,0.0928879,0.0946426,0.0705338
244,4,0.0509262,0.0230408,0.0689697,0.0063324,0.0827789
245,0,0.0284195,0.0219727,0.02285,-0.0548935,0.0456619
245,1,0.0132751,0.00900269,0.00534058,-0.0234985,-0.0884247
245,2,0.0178146,0.00400543,0.015564,0.0703049,-0.0833893
245,3,0.0477982,0.00740051,0.0336456,0.1297,0.000648499
245,4,0.00537872,-0.00526428,0.0593948,0.125465,0.0206757
246,0,-0.0378799,-0.0149155,0.0389862,0.145454,0.029068
246,1,-0.0363922,-0.0162888,0.0804901,0.13092,0.0244904
246,2,-0.00514984,-0.0135422,0.106087,0.0625992,0.0263596
246,3,-0.00694275,-0.00953674,0.106621,0.0107956,0.0286865
246,4,-0.0195694,-0.0143051,0.0727081,-0.0439453,0.0462723
247,0,-0.0243378,-0.0171661,0.0549316,-0.163155,0.0778961
247,1,-0.0258636,-0.0107193,0.0653458,-0.223618,0.0987244
247,2,0.00415802,-0.00232697,0.018158,-0.120621,0.107994
247,3,0.018158,0.00839233,0.0192261,0.0218582,0.0951385
247,4,-0.0111008,0.0112534,0.0738525,0.148201,0.07164
248,0,-0.0114822,0.00957489,0.0318527,0.142288,0.0657272
248,1,0.0177383,0.0140762,0.0279617,0.0829315,0.0696182
248,2,-0.00396729,0.00980377,0.0267792,0.0688553,0.0650024
248,3,-0.0242233,0.00228882,0.00888824,0.0374985,0.0644684
248,4,-0.0297546,0.00545502,0.0255585,0.051384,0.055275
249,0,0.00221252,-0.0012207,-0.000267029,0.129471,0.0448227
249,1,0.0540924,0.00415802,-0.0109482,0.175743,0.0501251
249,2,0.0826645,0.0130463,-0.00297546,0.182533,0.0667191
249,3,0.0837326,0.0141144,0.0191498,0.173988,0.0709534
249,4,0.0577927,0.00495911,0.0520706,0.0986099,0.0647354
250,0,0.00946045,-0.00873566,0.0679016,0.079689,0.0514603
250,1,-0.0210953,-0.0173187,0.0112152,0.0980377,0.0372314
250,2,-0.0460434,-0.0346756,-0.00968933,0.0753784,0.0523758
250,3,-0.0754929,-0.0310898,0.0369263,0.0899124,0.0419235
250,4,-0.067749,-0.0268173,0.0801849,0.109673,0.0380707
251,0,-0.0136566,-0.0168991,0.079155,0.102882,0.0263214
251,1,-0.0335693,0.000572205,-0.0175095,0.0539017,0.0222778
251,2,-0.0614929,0.00682831,-0.0251007,-0.0180435,0.030632
251,3,-0.0753784,0.0133133,0.0158691,-0.172462,0.0531769
251,4,0.00110626,0.0270462,0.00476837,-0.218811,0.0523758
252,0,0.0534058,0.0317764,0.0896454,-0.127602,0.0435638
252,1,0.0366211,0.0269318,0.0564575,-0.0107193,0.0442886
252,2,0.0136566,0.024147,0.00617981,-0.0113297,0.0440979
252,3,0.0362015,0.00282288,0.02388,-0.0858688,0.0489044
252,4,0.0535202,-0.0175476,0.117188,-0.0685883,0.0510406
253,0,0.0325012,-0.0112152,0.122375,-0.0123978,0.0464249
253,1,0.0285339,-0.0130081,0.056839,0.0437164,0.0471115
253,2,0.0120926,-0.0332642,0.0326157,0.128098,0.0493622
253,3,-0.0289154,-0.0345612,0.0366592,0.174217,0.0540161
253,4,-0.0364685,-0.0229645,0.0355911,0.167084,0.0570679
254,0,-0.0260925,-0.0127029,0.0344849,0.141182,0.0550079
254,1,-0.022583,0.000457764,0.0087738,0.123863,0.0328445
254,2,-0.00202179,0.0168228,-0.0100327,0.134392,0.00865936
254,3,0.0186157,0.0270844,0.0172424,0.167732,0.0030899
254,4,0.0334549,0.0331497,0.0521088,0.175438,-0.0161743
255,0,0.0475693,0.0365067,0.069809,0.0774384,0.00476837
255,1,0.0598526,0.0368881,0.0730133,-0.101242,0.0281906
255,2,0.0375366,0.0328064,0.0787354,-0.241737,0.0496292
255,3,0.00827789,0.02491,0.0262833,-0.159035,0.0682831
255,4,-0.0167465,0.0167084,0.0709152,-0.00900269,0.0753403
256,0,-0.0453186,0.0094223,0.107956,0.00923157,0.0924683
256,1,-0.0595856,-0.00423431,-0.159302,-0.0393295,0.0983429
256,2,-0.0624466,-0.0181961,-0.252876,-0.0411224,0.10025
256,3,-0.030365,-0.0272751,-0.10334,0.0430298,0.0922394
256,4,0.00205994,-0.0354385,-0.0236893,0.189438,0.0404739
257,0,0.0252533,-0.0302124,-0.0353622,0.229378,0.00553131
257,1,0.0341415,-0.0201035,0.0619507,0.147057,-0.0149155
257,2,0.0358582,-0.0161743,0.147247,0.0618744,-0.0261688
257,3,0.0350952,-0.00591278,0.236816,0.0574875,-0.00652313
257,4,0.0243759,-0.00240326,0.0953674,0.16552,0.0217438
258,0,0.0226974,-0.00217438,0.078392,0.166016,0.0372314
258,1,0.0152969,-0.00526428,0.135536,0.078392,0.0601578
258,2,-0.0408173,-0.0139618,0.0870132,-0.0349426,0.0720978
258,3,-0.0722122,-0.0135422,0.0217438,-0.147591,0.0731659
258,4,-0.0540543,-0.013237,0.084343,-0.0680542,0.0782013
259,0,-0.0424576,-0.000190735,0.130615,0.0473022,0.0756454
259,1,-0.0284195,0.00663757,0.135155,0.199356,0.0574493
259,2,-0.0125504,0.00370026,0.0712204,0.289497,0.0547409
259,3,-0.000114441,0.00679016,0.0775528,0.282364,0.0532532
259,4,0.0160599,0.0101471,0.11734,0.332184,0.0163651
260,0,0.0250244,0.0178528,0.147552,0.15934,-0.015564
260,1,0.0240707,0.019989,0.102081,-0.0960922,-0.000495911
260,2,0.0337601,0.0210571,-0.121918,-0.307846,0.0359726
260,3,0.056572,0.0162506,-0.194168,-0.459595,0.0538254
260,4,0.0492859,0.00797272,-0.1548,-0.553207,0.0550079
261,0,0.0126266,0.0137711,0.0153351,-0.312767,0.0711823
261,1,-0.0102234,0.00637054,0.117455,-0.0454712,0.0759506
261,2,-0.0088501,-0.00244141,0.160179,0.11158,0.0576401
261,3,-0.00770569,-0.00743866,0.0617599,0.243378,0.0377655
261,4,-0.0158691,-0.00793457,0.0588608,0.277786,0.0347137
262,0,-0.0283432,-0.00614166,0.0527191,0.279617,0.0360107
262,1,-0.0577164,0.00843048,-0.125961,0.255814,0.0416946
262,2,-0.0697708,-0.0138092,-0.105705,0.211143,0.0439453
262,3,-0.0460434,-0.0200653,-0.131226,0.18898,0.043602
262,4,-0.0360107,-0.0123596,-0.0402069,0.228004,0.0518417
263,0,-0.0222778,-0.00297546,0.103073,0.2174,0.0507355
263,1,0.024147,0.00198364,0.124435,0.159531,0.0445175
263,2,0.0688934,0.00549316,0.185356,0.0507736,0.0419998
263,3,0.0579071,0.0109863,0.132637,0.0163269,0.045929
263,4,0.0354004,0.00400543,0.14267,0.00930786,0.0383759
264,0,0.0426865,-0.000305176,0.186043,0.0180435,0.0376892
264,1,0.0687408,-0.0056839,0.135727,0.0331497,0.041275
264,2,0.0592041,-0.0138474,0.0101089,-0.00366211,0.0498581
264,3,0.0446701,-0.0287628,-0.135193,-0.0486755,0.0491714
264,4,0.020752,-0.0692368,-0.191879,0.0043869,0.0492096
265,0,-0.0258636,-0.0769424,0.192223,0.0637817,0.0419998
265,1,-0.0351715,-0.0296021,0.168571,0.0278473,0.0421524
265,2,-0.01091,0.0263596,-0.0468826,-0.0315475,0.041008
265,3,-0.01297,0.178452,0.00614166,-0.0291061,0.0455093
265,4,-0.0392532,0.0883102,-0.124168,0.0624084,0.0386047
266,0,-0.0634766,-0.0999069,-0.100632,0.132675,0.0289917
266,1,-0.065155,-0.0524902,-0.0321579,0.048027,0.0389862
266,2,-0.0463486,0.0616455,0.0647354,-0.114899,0.0450134
266,3,-0.0257111,0.104256,-0.120926,-0.0817108,0.0422287
266,4,-0.00499725,0.164528,-0.333061,-0.22789,0.0413895
267,0,0.00728607,-0.0392151,0.0349808,-0.319748,0.046463
267,1,0.0195313,-0.241394,0.1091,-0.237427,0.050087
267,2,0.0217819,-0.120087,-0.022049,-0.0753403,0.0653076
267,3,0.0228119,0.158005,0.0365067,0.0523376,0.0601959
267,4,0.0233841,0.252304,0.00782013,0.134659,0.0442886
268,0,0.0300598,0.102501,0.128098,0.176239,0.0479889
268,1,0.0276184,-0.0127792,0.216637,0.189285,0.0409317
268,2,0.0277328,0.0580215,0.231857,0.196114,0.0475693
268,3,0.0222397,0.0313568,0.208931,0.185776,0.0554276
268,4,0.0210571,-0.132637,0.195045,0.173645,0.0547028
269,0,0.0164795,-0.143204,0.178452,0.158768,0.0569534
269,1,0.00152588,-0.135727,0.161324,0.151215,0.0592422
269,2,-0.0131607,-0.147324,0.136833,0.115166,0.0527954
269,3,-0.0314331,-0.138321,0.105515,0.0962448,0.044136
269,4,-0.0291061,-0.131721,0.0901031,0.117569,0.0447083
270,0,-0.0167084,-0.0349045,0.067215,0.101128,0.0430298
270,1,-0.0136948,0.0415421,0.0300598,0.0743103,0.0441742
270,2,-0.0116348,0.0904465,7.63E-05,0.0722504,0.0394821
270,3,-0.0056839,0.322037,-0.0120163,0.0499344,0.0405502
270,4,-0.00427246,0.176392,0.000267029,0.0141525,0.0331879
271,0,-0.0030899,-0.0401306,0.0921631,0.0246811,0.0290298
271,1,-0.000762939,-0.0893402,0.0683594,0.0120926,0.0228119
271,2,-0.00156403,-0.109215,0.00297546,-0.0178146,0.0287247
271,3,-0.000724792,-0.213661,-0.0367355,-0.00179291,0.0318527
271,4,0.000114441,-0.206833,-0.0613403,0.0537109,0.0318146
272,0,0.00183105,-0.015564,-0.077095,0.0920868,0.0386047
272,1,-0.00133514,0.117302,-0.0736618,0.0325012,0.0456238
272,2,0.00160217,-0.0992584,-0.0390244,-0.0308609,0.0447464
272,3,0.00118256,0.0170517,-0.0484848,-0.0408936,0.0414276
272,4,0.00236511,-0.0510406,-0.0385666,-0.000190735,0.0392151
273,0,0.00263214,-0.126228,-0.0102997,0.0150299,0.0368118
273,1,-0.000839233,0.0997162,-0.00171661,0.00202179,0.045166
273,2,0.00461578,0.428925,0.000343323,0.00358582,0.0547409
273,3,0.00267029,0.508537,0.016861,0.0314713,0.0582504
273,4,0.00110626,0.285988,0.0243378,0.0337982,0.0502777
274,0,0.00453949,0.218964,0.0281525,0.0294876,0.0458527
274,1,0.00400543,0.408287,0.0368118,0.057869,0.0504684
274,2,-0.00114441,0.152893,0.0428391,0.0673294,0.052948
274,3,0,-0.0506592,0.0488663,0.0550842,0.0480652
274,4,0.001297,-0.238533,0.0497055,0.0426483,0.0482559
275,0,0.00366211,-0.366325,0.042572,0.0533295,0.0369644
275,1,0.00339508,-0.553627,0.0476456,0.0724792,0.0437927
275,2,0.00175476,-0.396461,0.0455856,0.0596619,0.0373459
275,3,0.00171661,-0.155182,0.0444794,0.0492096,0.0364685
275,4,0.00209808,-0.033493,0.0457764,0.0667191,0.0476837
276,0,0.000419617,-0.0611877,0.0733948,0.0738144,0.0632477
276,1,0.000762939,-0.043602,0.116615,0.0517654,0.0628281
276,2,0.00038147,-0.0995255,0.0682449,0.0190353,0.0533676
276,3,0.00396729,0.0331497,0.0521469,0.0240707,0.0502396
276,4,0.000152588,-0.0722504,0.107765,0.033493,0.0497055
277,0,-0.00114441,-0.191307,0.186157,0.0412369,0.0515747
277,1,-0.00198364,-0.0127029,0.166321,0.0349808,0.046463
277,2,-0.00553131,0.0283051,0.0436401,0.0366211,0.0317764
277,3,-0.00576019,0.184822,-0.0324631,0.0500107,0.0364685
277,4,-0.0037384,0.221367,0.0214386,0.0575256,0.0395203
278,0,-0.00495911,0.300827,0.0711823,0.0604248,0.0421906
278,1,-0.00350952,0.11734,0.0198746,0.0606537,0.039978
278,2,-0.00125885,-0.0141907,-0.0749588,0.0621414,0.0350189
278,3,-0.00225067,-0.0261688,-0.0139618,0.0559998,0.0382996
278,4,-0.000495911,-0.0882339,-0.0102234,0.0578308,0.0345612
279,0,0.00511169,-0.138931,-0.0201035,0.0615311,0.0394058
279,1,0.00671387,-0.12001,-0.0271225,0.0630951,0.0448227
279,2,0.0043869,0.241051,0.0608826,0.0401306,0.0451279
279,3,-0.00167847,0.35923,0.0262451,0.0276947,0.0441742
279,4,-0.00469208,0.234222,0.03479,0.0435638,0.0431061
280,0,-0.00106812,0.0545883,0.0472641,0.0385666,0.0457001
280,1,0.00347137,-0.0453568,0.0538635,0.0313187,0.0483322
280,2,0.0037384,-0.0934982,0.0548935,0.0357056,0.0492477
280,3,0.00789642,-0.155449,0.0922012,0.0371552,0.0478363
280,4,0.00476837,-0.0967789,0.0643158,0.0381851,0.0429535
281,0,0.000801086,-0.0830841,0.0613785,0.0458527,0.0370026
281,1,0.00118256,-0.15873,0.0609207,0.0512314,0.037117
281,2,0.00202179,-0.117607,0.0527573,0.0465775,0.0421906
281,3,0.00141144,-0.0790024,0.0463486,0.044632,0.0359344
281,4,-0.000572205,-0.079689,0.0447464,0.043869,0.0344086
282,0,-0.00110626,-0.028801,0.0429153,0.0409698,0.0410843
282,1,7.63E-05,-0.0870514,0.0370026,0.0312424,0.0485611
282,2,0.0025177,-0.0208664,0.0296021,0.0206375,0.0489426
282,3,0.00190735,0.091362,0.0267029,0.0218201,0.0478363
282,4,0.000648499,0.235863,0.0252533,0.0203323,0.0530243
283,0,-0.0012207,0.123405,0.0267029,0.0207901,0.0613403
283,1,-0.0025177,-0.0212479,0.0317001,0.0310898,0.0557327
283,2,-0.00408173,-0.0247192,0.0329971,0.0344849,0.0397873
283,3,-0.00385284,0.216217,0.033226,0.0410461,0.0342178
283,4,-0.00263214,0.1754,0.0271988,0.0447464,0.0226593
284,0,-0.00160217,0.00740051,0.0249481,0.0461578,0.0291824
284,1,-0.00114441,-0.183563,0.0254822,0.0485992,0.0416183
284,2,0.00377655,-0.280228,0.0249863,0.0443649,0.0408173
284,3,0.0037384,0.159492,0.0257111,0.0455475,0.0211716
284,4,0.0018692,0.604897,0.0252533,0.0465393,0.0116348
285,0,-0.000953674,0.483437,0.029068,0.0490189,0.0875473
285,1,-0.00232697,-0.124664,0.0334167,0.0557709,0.121193
285,2,-0.00301361,-0.192261,0.0299454,0.0564194,0.0854874
285,3,-0.00297546,-0.234261,0.0239563,0.0525665,0.066452
285,4,-0.0031662,-0.227127,0.0208664,0.0476456,0.0874329
286,0,-0.00087738,-0.0993729,0.0210953,0.0437927,0.00907898
286,1,0.00125885,-0.181122,0.0229263,0.0401688,-0.0592422
286,2,0.00419617,-0.168839,0.0276947,0.0393295,0.0708389
286,3,0.00190735,-0.0900269,0.033989,0.0429153,0.369949
286,4,0.00102997,-0.0673294,0.0462723,0.0505447,0.375061
287,0,0.00343323,-0.170288,0.0557327,0.0590897,0.0701141
287,1,0.01194,-0.135307,0.0548935,0.0591278,-0.262527
287,2,0.0214005,-0.0595856,0.0545883,0.0568008,-0.469208
287,3,0.0239944,-0.0135422,0.0563431,0.0606155,-0.347672
287,4,0.0129318,0.0281906,0.0574493,0.0594711,0.00152588
288,0,0.00183105,0.0489044,0.0514984,0.057373,0.084877
288,1,-0.00358582,0.0542068,0.045166,0.0551987,0.0664139
288,2,-0.00808716,0.064888,0.0429535,0.0495148,0.139389
288,3,-0.00892639,0.0800323,0.0419998,0.0481033,0.137138
288,4,-0.0101089,0.0888062,0.0341797,0.0395584,0.128365
289,0,-0.0103378,0.092659,0.0311661,0.0386047,0.108337
289,1,-0.0106049,0.0951385,0.0335312,0.0399399,0.109596
289,2,-0.0101471,0.0854492,0.0318527,0.0377655,0.108032
289,3,-0.00659943,0.0614548,0.0321579,0.0391388,0.112343
289,4,-0.00476837,0.0481415,0.0334549,0.042305,0.105057
290,0,-0.00427246,0.0344849,0.036087,0.040741,0.0543976
290,1,-0.000534058,0.0236893,0.0357056,0.0439835,0.00411987
290,2,-0.000572205,0.0283813,0.0354004,0.0387573,0.00530243
290,3,0.001297,0.02491,0.0374222,0.0402832,0.0468445
290,4,0.00522614,0.0215912,0.0374603,0.0395966,0.0882721
291,0,0.00644684,0.019989,0.0329208,0.0356293,0.216103
291,1,0.00576019,0.0108719,0.0307846,0.026474,0.166283
291,2,0.00312805,0.000267029,0.0263977,0.0179672,0.0528717
291,3,0.0019455,-0.00476837,0.0246811,0.0167084,0.0408554
291,4,0.00484467,-0.0117111,0.0261688,0.018692,0.145378
292,0,0.00873566,-0.015831,0.0343704,0.0252914,0.154877
292,1,0.00881195,-0.0203323,0.0495148,0.0370026,0.00785828
292,2,0.00534058,-0.031929,0.0625992,0.0507355,-0.22007
292,3,0.0019455,-0.040741,0.0636292,0.0558472,-0.282326
292,4,-0.00217438,-0.0396729,0.0592804,0.0554657,-0.139122
293,0,-0.00766754,-0.0341415,0.0457764,0.0525665,0.0201035
293,1,-0.0143814,-0.0324249,0.038147,0.0421524,0.217514
293,2,-0.0120544,-0.0244522,0.0334167,0.0428772,0.191536
293,3,-0.0019455,-0.0170517,0.0378799,0.0469971,-0.0380325
293,4,0.00110626,-0.018425,0.0405502,0.0518417,-0.123558
294,0,0.00778198,-0.0141525,0.0416565,0.0553894,-0.0276947
294,1,0.0122452,-0.00785828,0.0400925,0.0533676,-0.188828
294,2,0.0191498,-0.00328064,0.0470352,0.0537872,-0.14122
294,3,0.0137711,0.00610352,0.0466919,0.057373,0.0702667
294,4,0.00473022,0.0102615,0.0436401,0.0595856,0.168991
295,0,-0.001297,0.00793457,0.0380707,0.0550079,0.312576
295,1,0.000190735,0.00553131,0.0307083,0.0497818,0.255775
295,2,-0.000610352,0.00606537,0.0210571,0.0389481,0.0920868
295,3,-0.00114441,0.00865936,0.0107574,0.0310135,0.0232315
295,4,-0.00610352,0.00640869,0.00293732,0.0210953,0.103073
296,0,-0.00526428,0.00442505,0.00549316,0.0316238,0.332489
296,1,-0.0062561,0.00701904,0.0225067,0.043335,0.208855
296,2,-0.00228882,0.00644684,0.0442886,0.0457382,-0.225792
296,3,-0.00423431,0.00679016,0.0530243,0.0476837,-0.193596
296,4,-0.0082016,0.00244141,0.0560379,0.0519943,0.0886154
297,0,-0.0113297,0.00400543,0.047493,0.0513458,0.0819778
297,1,-0.00911713,0.000419617,0.0387192,0.0405121,0.0344467
297,2,-0.00930786,0.000648499,0.0317001,0.0349045,0.0865555
297,3,-0.00705719,0.0056839,0.023613,0.0285721,0.0853348
297,4,-0.00553131,0.000801086,0.0140381,0.02388,0.097847
298,0,-0.00595093,-0.00453949,0.0173187,0.0350571,0.205917
298,1,-0.00247955,-0.00682831,0.0271606,0.0447845,0.40081
298,2,0.00141144,-0.0117111,0.0339508,0.0479126,0.192909
298,3,0.00217438,-0.0123215,0.0432587,0.0513077,-0.224686
298,4,0.00225067,-0.0114059,0.0511169,0.055809,-0.435219
299,0,0.00640869,-0.00778198,0.0461197,0.0514603,-0.342026
299,1,0.00782013,-0.00343323,0.045166,0.0489426,-0.11795
299,2,0.00526428,0.000610352,0.0416183,0.042572,0.158195
299,3,0.0037384,0.00175476,0.0422668,0.0401688,0.121689
299,4,0.00370026,0.0031662,0.0423431,0.0433731,-0.0864792
300,0,0.00213623,-0.001297,0.0426483,0.0454712,-0.110703
300,1,0.0056076,-0.000915527,0.0444031,0.0504303,-0.0557327
300,2,0.00370026,0.000686646,0.0481415,0.0552368,0.0530624
300,3,0.00469208,0.00133514,0.0519562,0.0475311,0.266495
300,4,0.00232697,0.00190735,0.0534821,0.04776,0.148201
301,0,-0.000572205,0.00270844,0.0457382,0.0474548,0.0807571
301,1,-7.63E-05,0.00278473,0.043602,0.046463,0.153885
301,2,0.00225067,0.00225067,0.0378418,0.041275,0.155487
301,3,0.00801086,0.00598907,0.0347137,0.0394058,0.144081
301,4,0.0069046,0.00785828,0.0278473,0.0426102,0.141106
302,0,0.00450134,0.0100708,0.0318146,0.0422287,0.117607
302,1,0.00293732,0.00919342,0.0440598,0.0373077,0.120316
302,2,0.00190735,0.00789642,0.0514603,0.039978,0.063858
302,3,0.00263214,0.00896454,0.0462341,0.0452042,0.0230789
302,4,0.00343323,0.00434875,0.0407028,0.0419617,0.0170898
303,0,0.00293732,0.00347137,0.0401306,0.0434113,0.0278854
303,1,-0.00114441,0.00106812,0.0431061,0.0492859,0.0155258
303,2,-0.00324249,-0.000915527,0.0373459,0.0514221,0.0468063
303,3,-0.00400543,-0.000724792,0.0347519,0.0506973,0.0718689
303,4,-0.00743866,-0.00244141,0.0344086,0.0385666,0.0101852
304,0,-0.00648499,-0.00621796,0.0311661,0.0405121,0.0112534
304,1,-0.00663757,-0.00682831,0.0294113,0.0454712,0.00564575
304,2,0.00038147,-0.00225067,0.022049,0.050354,0.0139236
304,3,0.00431061,0.0012207,0.0231552,0.0511551,0.0193405
304,4,0.00556946,0.00350952,0.025177,0.0452042,0.0158691
305,0,0.00579834,0.0056076,0.0272751,0.0550461,-0.00991821
305,1,0.00587463,0.00526428,0.0253296,0.0603104,-0.0278091
305,2,0.00320435,0.00400543,0.0248718,0.0206375,-0.00934601
305,3,-0.000190735,-0.00038147,0.0286484,-0.0271606,0.032959
305,4,-0.0030899,-0.0031662,0.0310898,-0.00473022,0.0495911
306,0,-0.00370026,-0.00377655,0.0306702,0.0262833,0.041008
306,1,-0.00202179,-0.00598907,0.0286102,0.0498199,0.0418472
306,2,-0.00415802,-0.00621796,0.0304031,0.0590515,0.0367737
306,3,-0.00305176,-0.0030899,0.028801,0.0545883,0.0396347
306,4,-0.00602722,-0.00362396,0.031662,0.0468063,0.0391388
307,0,-0.00682831,-0.00354767,0.0381088,0.0664902,0.0483322
307,1,-0.00537872,-0.00415802,0.0440979,0.0734329,0.0901794
307,2,-0.00621796,-0.00488281,0.0457382,0.0711441,0.08564
307,3,-0.00335693,-0.00419617,0.0470734,0.0622177,0.0728989
307,4,-0.00297546,-0.00377655,0.0436783,0.046463,0.0761795
308,0,-0.00480652,-0.00209808,0.039444,0.0521088,0.0777817
308,1,-0.0159454,0.00160217,0.0422668,0.065155,0.0458145
308,2,-0.019722,0.00427246,0.0415421,0.0679779,0.00183105
308,3,-0.0140381,0.00442505,0.0444412,0.0651169,-0.0178528
308,4,-0.000343323,0.00495911,0.0457001,0.0627136,0.0258636
309,0,0.0153351,0.00423431,0.0484085,0.0869751,0.0458527
309,1,0.0359726,0.00526428,0.0442886,0.127258,0.0543594
309,2,0.046196,0.00427246,0.038681,0.0417709,0.0806046
309,3,0.0457764,0.00167847,0.0400543,-0.00305176,0.059967
309,4,0.0413132,0.00545502,0.0457382,0.0107956,0.0377655
310,0,0.0428391,0.0069046,0.0463867,-0.0147629,0.057373
310,1,0.0410461,0.00785828,0.0424957,-0.0105667,0.116692
310,2,0.0401688,0.00442505,0.0379944,-0.0157166,0.173645
310,3,0.0234985,-0.000495911,0.0410461,-0.0772476,0.138435
310,4,-0.00518799,-0.00370026,0.040741,-0.111198,0.000305176
311,0,-0.036087,-0.00358582,0.034256,-0.158577,-0.0877762
311,1,-0.0675964,-0.00499725,0.0343704,-0.0733566,-0.0124741
311,2,-0.0771713,-0.00526428,0.0335312,0.0295258,0.0548172
311,3,-0.0766754,-0.00301361,0.0345612,0.103073,0.0295639
311,4,-0.0580597,-0.00240326,0.0333023,0.141716,-0.0402832
312,0,-0.0323868,-0.00102997,0.0363541,0.155029,-0.143547
312,1,-0.0129318,-0.00179291,0.0370407,0.155563,-0.0601196
312,2,0.00450134,-0.00431061,0.0341797,0.14946,0.109062
312,3,0.0104523,-0.0050354,0.0307083,0.140457,0.121117
312,4,0.022583,-0.00347137,0.030899,0.118179,0.111084
313,0,0.0293732,-0.00400543,0.0270081,0.10788,0.134888
313,1,0.0250244,-0.00343323,0.0224686,0.094986,0.197639
313,2,0.0198746,0,0.032196,0.088501,0.141296
313,3,0.0221634,0.00175476,0.0370407,0.0815201,0.0738525
313,4,-0.00637054,0.00469208,0.0391006,0.0691605,-0.0460052
314,0,-0.033226,0.00488281,0.0418472,0.0638199,0.0175095
314,1,-0.0307465,0.0019455,0.0395584,0.0555801,0.045433
314,2,-0.0149155,0.00190735,0.0406265,0.044632,0.00450134
314,3,-0.00938416,0.00423431,0.0349808,0.0298309,0.0857544
314,4,-0.0127029,0.00331879,0.0333023,0.016098,0.122719
315,0,-0.00747681,0.00598907,0.0373077,0.0102997,0.109138
315,1,-0.0110245,0.0038147,0.0354004,0.00476837,-0.0460052
315,2,0.000610352,0.00679016,0.038147,0.00488281,-0.126114
315,3,0.0165558,0.00507355,0.0439835,0.00968933,-0.0898743
315,4,0.0440216,0,0.0435638,0.0106812,0.0462723
316,0,0.0501251,-0.00377655,0.0456619,0.0110626,0.107079
316,1,0.0539398,-0.001297,0.0397873,0.00938416,0.0784683
316,2,0.0478363,-0.00499725,0.0363541,0.0177002,0.0505066
316,3,0.0331116,-0.00411987,0.0354385,0.0224686,0.0749588
316,4,0.022583,-0.00328064,0.0347137,0.025177,0.0201416
317,0,0.0155258,-0.00362396,0.0336075,0.0232697,-0.0906754
317,1,0.0189209,-0.00133514,0.0332642,0.0249863,-0.113525
317,2,0.0374985,-0.00297546,0.029068,0.0259781,0.05867
317,3,0.100746,-0.000305176,0.0317383,0.0299835,0.0629807
317,4,0.0326538,0.00297546,0.0415802,0.0353241,0.0632858
318,0,-0.0246429,0.00907898,0.0473022,0.0407791,0.147743
318,1,-0.0561905,0.00938416,0.0471878,0.0400162,0.147591
318,2,-0.0692368,0.00720978,0.0475693,0.0450516,0.0899124
318,3,-0.121384,0.00717163,0.0453949,0.0478363,0.064621
318,4,-0.172653,0.00392914,0.0437164,0.0487518,0.101204
319,0,-0.159569,0.00110626,0.0365829,0.0497437,0.0844955
319,1,-0.0574493,0.000953674,0.0336075,0.0489044,0.067215
319,2,-0.0114441,0.00114441,0.0315475,0.048027,0.0422668
319,3,0.0340652,-0.000572205,0.0296783,0.0497437,-0.00736237
319,4,0.0713348,0.000305176,0.0352097,0.0551224,0.00156403
320,0,0.0653076,-0.000724792,0.0375748,0.0592041,0.0406265
320,1,0.0344467,-0.000343323,0.038681,0.0617599,0.0762939
320,2,0.0431061,-0.00427246,0.0363922,0.0613022,0.0696564
320,3,-0.00530243,-0.00759125,0.0350952,0.0590897,0.0222015
320,4,0.0260925,-0.00583649,0.0367355,0.0584793,-0.00213623
321,0,0.0500488,-0.00537872,0.0341034,0.0556183,0.0556564
321,1,0.0275803,-0.0056839,0.0319672,0.0541306,0.0255585
321,2,0.0179291,-0.00858307,0.0311279,0.0537109,0.0315475
321,3,0.0321198,-0.00720978,0.0299072,0.050621,0.0450134
321,4,0.00694275,-0.00331879,0.0344086,0.048027,0.0533676
322,0,-0.016861,-0.00164032,0.0408173,0.0452423,0.0594711
322,1,-0.0344086,-0.00213623,0.0410461,0.0483704,0.128136
322,2,-0.0349426,-0.00213623,0.0455093,0.0465393,0.0969696
322,3,-0.0242996,0.000839233,0.0444794,0.0429153,0.0534058
322,4,0.00656128,0.00156403,0.0409698,0.0397491,0.0259781
323,0,0.0378799,0.00175476,0.0373077,0.0361252,-0.0249481
323,1,0.0568008,-0.000762939,0.0378036,0.0419998,-0.00907898
323,2,0.0574493,0.000915527,0.0375748,0.0407791,0.00301361
323,3,0.0439835,0.00610352,0.0379944,0.0414276,-0.0038147
323,4,0.0262833,0.0056076,0.0391388,0.0463486,0.00553131
324,0,0.0157928,0.0126648,0.037384,0.04673,0.0260925
324,1,0.00850677,0.0137329,0.0358582,0.0444031,0.0550842
324,2,0.00640869,0.0153732,0.0322723,0.0421143,0.036087
324,3,0.00789642,0.0111389,0.0262833,0.0344849,0.0231552
324,4,0.00213623,0.00751495,0.0231552,0.0310898,0.0201797
325,0,-0.0191498,0.00396729,0.022049,0.0308228,0.026741
325,1,-0.0286865,0.00495911,0.02285,0.0299454,0.0146866
325,2,-0.0304794,0.00675201,0.0337601,0.0399399,0.0434875
325,3,-0.0344086,0.00297546,0.0391769,0.0449371,0.123558
325,4,-0.044899,-0.000686646,0.045433,0.0508881,0.243073
326,0,-0.0429153,-0.00362396,0.0492859,0.0483704,0.235825
326,1,-0.0366592,-0.0100708,0.0488281,0.0540924,0.164108
326,2,-0.0351334,-0.0175858,0.0492859,0.0509644,0.174942
326,3,-0.00617981,-0.0181961,0.0458908,0.0453949,0.083313
326,4,-0.00137329,-0.0185394,0.0447083,0.043869,-0.139084
327,0,-0.0189972,-0.0181198,0.0455856,0.0388336,-0.332375
327,1,0.0157928,-0.0144196,0.0449371,0.0412369,-0.165939
327,2,0.0337219,-0.00873566,0.0416946,0.0411606,0.20462
327,3,0.0258255,-0.000915527,0.043869,0.0377274,0.222321
327,4,0.00495911,0.00732422,0.0385284,0.0388718,-0.0431824
328,0,-0.0287628,0.0141144,0.0346375,0.0402069,-0.0172424
328,1,-0.0884628,0.0183105,0.0333786,0.0395584,-0.0617599
328,2,-0.0980759,0.0138092,0.0276947,0.0418091,-0.136223
328,3,-0.0727081,0.00476837,0.021553,0.0388336,-0.0515747
328,4,-0.0196075,0.00110626,0.0213623,0.0362015,0.0335693
329,0,0.0299072,-0.0031662,0.0264359,0.0398636,0.174561
329,1,0.0592804,-0.00411987,0.0319672,0.0437164,0.232697
329,2,0.0608063,-0.00541687,0.0367355,0.0441742,0.158539
329,3,0.0305176,-0.0087738,0.0385284,0.0457764,-0.0126266
329,4,0.0266266,-0.00869751,0.0351334,0.0414276,-0.0522232
330,0,0.0498199,-0.00370026,0.0338364,0.0387192,0.0205994
330,1,0.0636673,-0.0025177,0.036087,0.0346375,0.0346756
330,2,0.0577545,0.00164032,0.0317383,0.0314331,0.113564
330,3,0.053215,0.0088501,0.0296402,0.0322723,0.138435
330,4,0.0378799,0.0156021,0.0345993,0.0376511,0.101357
331,0,0.0238037,0.0144577,0.0420761,0.0449371,0.122681
331,1,0.0160599,0.0128174,0.0479126,0.0499725,0.129318
331,2,0.0111008,0.00946045,0.0460434,0.0504303,0.130692
331,3,0.00232697,0.00900269,0.0467682,0.0534439,0.121651
331,4,-0.00732422,0.00793457,0.0424194,0.0553894,0.106697
332,0,-0.00137329,0.01194,0.0445175,0.0589752,0.0479507
332,1,-0.0063324,0.0131226,0.0442123,0.0629044,0.00175476
332,2,-0.0191879,0.0263596,0.041008,0.0590515,-0.026474
332,3,-0.0183487,0.0487137,0.0357819,0.056076,-0.0675201
332,4,-0.0238037,0.0177002,0.0362396,0.0530243,-0.0301743
333,0,-0.0276947,-0.0312805,0.0341034,0.0463867,0.0252914
333,1,-0.0272369,-0.0643921,0.0320053,0.0421906,0.0294113
333,2,-0.0270844,-0.129662,0.0305176,0.0389099,0.0273514
333,3,-0.024147,-0.0494385,0.0339508,0.0413895,0.0103378
333,4,-0.0196075,-0.0481033,0.0440598,0.0486755,-0.0244141
334,0,-0.0178146,-0.0154114,0.0487137,0.0547409,0.0260544
334,1,-0.0146484,0.131073,0.0522232,0.052948,0.0768661
334,2,-0.0082016,0.175209,0.0476837,0.0466537,0.00850677
334,3,0.000419617,0.0719833,0.0384903,0.0403976,-0.0062561
334,4,-0.00297546,-0.000762939,0.0314331,0.031395,0.0168991
335,0,-0.00320435,-0.0556564,0.0254059,0.0291061,0.044632
335,1,-0.00141144,-0.067482,0.0233078,0.0272751,0.0867844
335,2,-0.00205994,-0.0600815,0.0291824,0.0309372,0.0988007
335,3,0.00270844,-0.0465393,0.0368118,0.0354767,0.0655746
335,4,0.00232697,-0.0138855,0.0424957,0.0435638,-0.0245667
336,0,0.00694275,0.0753784,0.0508118,0.0488663,-0.00701904
336,1,0.00648499,0.0585556,0.0504303,0.0512695,0.0516129
336,2,0.00511169,0.0220108,0.0457001,0.0486755,0.112762
336,3,0.00598907,-0.0441742,0.0414276,0.0462341,0.119553
336,4,0.00347137,-0.0632095,0.0315094,0.0404358,-0.000991821
337,0,0.00610352,-0.0580215,0.028801,0.0423813,-0.00736237
337,1,0.00728607,-0.0592422,0.0266647,0.0415421,-0.00236511
337,2,0.00671387,-0.0458145,0.0261307,0.0436401,0.00804901
337,3,0.00453949,-0.0281906,0.0296783,0.0442123,0.0684357
337,4,0.00576019,-0.00766754,0.0323868,0.0463867,0.117378
338,0,0.00553131,0.00354767,0.0356674,0.048027,0.0733566
338,1,0.00469208,0.0206375,0.0356293,0.0487137,0.038681
338,2,0.00461578,0.0549316,0.0362778,0.0537491,0.0253296
338,3,0.00370026,0.0902557,0.0409698,0.0521088,0.0486755
338,4,0.00278473,0.0489426,0.0407791,0.0440216,0.0763321
339,0,0.00312805,0.0170517,0.0355911,0.0423431,0.0853348
339,1,-0.000610352,0.0205231,0.0286484,0.0324631,0.118942
339,2,0.00366211,0.0333405,0.0320053,0.0320053,0.105629
339,3,0.00457764,0.0162125,0.0342178,0.0341797,0.0618744
339,4,0.00301361,0.00255585,0.0378036,0.0360489,-0.0087738
340,0,0.00118256,-0.00831604,0.0419617,0.0403595,-0.0598526
340,1,-0.00171661,-0.0449753,0.0419235,0.0427246,0.00793457
340,2,-0.00225067,-0.0485611,0.0445175,0.0412369,0.12085
340,3,-0.00038147,-0.0321579,0.0428772,0.0377274,0.131149
340,4,-0.000686646,-0.0680161,0.0368118,0.0372696,0.190163
341,0,-0.00133514,-0.109749,0.0336838,0.0355911,0.140877
341,1,-0.0019455,-0.0378418,0.0339127,0.0323868,0.038681
341,2,-0.0018692,0.106735,0.0349045,0.0375748,-0.102425
341,3,-0.00102997,0.103302,0.0351715,0.0352478,-0.137215
341,4,-0.00217438,0.0540924,0.03582,0.0456619,-0.0481415
342,0,3.81E-05,0.0390244,0.0441742,0.0491714,-0.0343323
342,1,-0.000267029,0.0539017,0.0404358,0.0444412,-0.0563812
342,2,0.000534058,0.0364304,0.0432587,0.0505447,-0.0284195
342,3,-0.00202179,0.0169373,0.0423431,0.0536346,-0.0223923
342,4,-0.00137329,0.00339508,0.0393677,0.0524521,-0.0153351
343,0,-0.00106812,-0.00450134,0.0378418,0.0549316,0.135994
343,1,-0.00156403,-0.0127029,0.0337982,0.0570297,0.186882
343,2,-0.000534058,-0.0143814,0.0369263,0.0558472,0.143394
343,3,-0.000228882,-0.0263596,0.0343323,0.0508499,0.124588
343,4,-0.00038147,-0.024147,0.0347519,0.048027,0.0894165
344,0,-0.00148773,-0.0114822,0.0334549,0.0478363,0.0876999
344,1,-0.000801086,-0.0243378,0.0320816,0.0480652,0.0757217
344,2,0.00114441,-0.0328064,0.026474,0.0426102,0.0485229
344,3,-0.000457764,-0.0403214,0.0277328,0.0416946,0.0543213
344,4,0.00038147,-0.049324,0.0292969,0.0405502,0.0537491
345,0,0.00240326,-0.0169373,0.031395,0.0423431,0.0387573
345,1,0.000801086,0.00713348,0.0328827,0.0395966,0.0343704
345,2,-0.000267029,0.0339508,0.0340652,0.0395584,0.0373459
345,3,0.00102997,0.0366974,0.0395966,0.0443649,0.0790024
345,4,0.00137329,0.0254822,0.0463867,0.0549698,0.137367
346,0,-0.00118256,-0.00469208,0.0492859,0.0482178,0.16613
346,1,7.63E-05,-0.00732422,0.0448227,0.044632,0.0915527
346,2,0.00144958,-0.00663757,0.0431442,0.050354,-0.0383759
346,3,0.00244141,0.0056839,0.0463104,0.0534821,-0.0037384
346,4,0.00209808,0.00598907,0.04776,0.0489807,0.00858307
347,0,0.00324249,-0.00171661,0.040741,0.0400162,0.0408936
347,1,0.00141144,-0.00675201,0.0291061,0.031662,-0.00480652
347,2,-0.00160217,-0.0102615,0.0249863,0.0307083,0.0245667
347,3,0.00278473,-0.00728607,0.0289917,0.0393295,0.0212479
347,4,-0.000839233,-0.00156403,0.0349808,0.0391388,-0.123978
348,0,-0.000724792,0.00938416,0.0418472,0.041008,-0.312004
348,1,-0.000534058,0.0137329,0.0433731,0.044136,-0.140266
348,2,-0.00087738,0.0131989,0.0470734,0.0396729,0.186081
348,3,-0.000114441,0.0130844,0.0476074,0.0346375,0.183601
348,4,0.00125885,0.00816345,0.0406265,0.0318909,0.0772858
349,0,-0.00167847,-0.0127792,0.0445938,0.0363541,0.0319672
349,1,-0.00278473,-0.0210571,0.0432968,0.0398254,-0.00419617
349,2,0.000991821,-0.0274277,0.0422287,0.0403214,0.048027
349,3,-0.00240326,-0.0141525,0.0371552,0.0391388,0.0976944
349,4,-0.00160217,-0.0189209,0.0234604,0.0323486,0.115585
350,0,0.00171661,0.00324249,0.0186539,0.0337601,0.136147
350,1,0.00087738,0.028038,0.0220108,0.0390625,0.172806
350,2,0.00118256,0.0158691,0.0244522,0.0442505,0.179291
350,3,-0.0012207,0.0213623,0.0292587,0.0473785,0.148125
350,4,0.0019455,0.0241852,0.0305557,0.0473785,0.0733948
351,0,0.00419617,-0.017128,0.0367737,0.0471115,-0.0667191
351,1,0.00354767,-0.0448608,0.0435257,0.0528717,-0.0012207
351,2,0.00247955,0.0193024,0.0494766,0.0572586,0.0647736
351,3,0.00114441,0.0266266,0.0498199,0.0550842,-0.114632
351,4,-0.000762939,0.0153351,0.0501251,0.0595474,-0.174637
352,0,0.000267029,0.0152206,0.0407028,0.0580597,-0.0239182
352,1,0.00240326,0.0125504,0.0324631,0.0508881,0.0181961
352,2,-0.00102997,0.00717163,0.0257874,0.0458527,0.0886154
352,3,-3.81E-05,0.00534058,0.0229645,0.0450516,0.163193
352,4,0.000839233,0.00297546,0.0256348,0.0437927,0.287552
353,0,0,0.000953674,0.0242233,0.0357437,0.375137
353,1,0.000228882,-0.0522232,0.0267029,0.0302124,0.272484
353,2,-0.000419617,-0.0043869,0.0387192,0.0350571,-0.100441
353,3,-0.000343323,-0.00244141,0.0462341,0.0431824,-0.507927
353,4,-0.00213623,-0.000572205,0.0588608,0.0528717,-0.29274
354,0,0,0.00862122,0.0685501,0.0591278,0.186234
354,1,0.001297,0.00175476,0.056839,0.0539017,0.230942
354,2,0.00297546,0.00370026,0.048027,0.0406265,0.171776
354,3,-0.00404358,0.00362396,0.0437927,0.0347137,0.0769043
354,4,-0.0044632,-0.00404358,0.0389481,0.0344849,0.0287628
355,0,0.00354767,-0.0239182,0.0318146,0.0353241,0.0906372
355,1,0.00362396,-0.0555801,0.0307465,0.0391006,0.128708
355,2,0.00217438,-0.0645828,0.0271988,0.0378799,0.0778961
355,3,0.00423431,-0.00873566,0.0234222,0.0365448,0.160484
355,4,0.000495911,0.058403,0.0213242,0.0363159,0.166435
356,0,0.00205994,0.102196,0.0196075,0.0355911,-0.10025
356,1,0.00152588,0.0884628,0.0178146,0.0320053,-0.254974
356,2,0.00328064,0.0246429,0.0187683,0.0329971,-0.0377655
356,3,0.00473022,-0.0563431,0.0307465,0.0503159,0.054512
356,4,0.00236511,-0.0322342,0.0423813,0.0558853,-0.52475
357,0,0.00255585,-0.0207901,0.0535583,0.0469971,-0.179176
357,1,0.00320435,-0.030098,0.0643539,0.0463867,0.516548
357,2,-0.00160217,-0.049324,0.0588989,0.0485229,0.265236
357,3,-0.00263214,-0.00743866,0.050087,0.050354,-0.0452042
357,4,-0.000991821,0.0301743,0.044136,0.0527191,-0.0185394
358,0,-0.00114441,0.0304413,0.0344467,0.0457001,0.160713
358,1,-0.000686646,0.0481415,0.0337601,0.049057,0.177231
358,2,-0.000839233,0.0577164,0.0391388,0.0509644,0.107002
358,3,0.000419617,0.0345612,0.0339508,0.044899,0.0906372
358,4,-0.00118256,0.017395,0.0312805,0.038414,0.0793457
359,0,-0.00183105,-0.00881195,0.0265884,0.0357819,0.0643921
359,1,-0.0025177,-0.0471115,0.032959,0.0414276,0.0357437
359,2,-0.00282288,-0.0543976,0.0322342,0.043869,0.0340271
359,3,-0.00450134,-0.031395,0.0327301,0.0400543,0.0688553
359,4,-0.00537872,-0.059433,0.0320435,0.0399399,0.117722
360,0,-0.00804901,-0.0247955,0.0334167,0.0450516,0.0980759
360,1,-0.00541687,-0.0206375,0.0326157,0.0476074,0.062561
360,2,-0.0043869,-0.0139999,0.035553,0.050621,0.0368881
360,3,-0.00350952,-0.022316,0.0382614,0.0517273,0.0165558
360,4,0.000610352,-0.00785828,0.0358963,0.0527954,0.0263977
361,0,0.0031662,0.0354004,0.0337982,0.0461197,0.01194
361,1,0.00606537,0.11158,0.0363541,0.0429153,-0.00202179
361,2,0.00553131,0.0969315,0.0328064,0.0404358,-0.00350952
361,3,0.00370026,-0.0968552,0.0328064,0.0405884,0.0069809
361,4,0.0037384,-0.153847,0.0369644,0.044136,0.00782013
362,0,0.00087738,-0.0820923,0.0400543,0.0498199,-0.0300598
362,1,0.00137329,0.0533676,0.0489044,0.0527954,-0.0583649
362,2,0.000839233,0.0616455,0.0457382,0.0477982,0.0199127
362,3,0.00453949,0.0678253,0.0360489,0.034523,0.0899124
362,4,0.00564575,0.0951767,0.023613,0.0157547,0.197754
363,0,0.00732422,0.0395584,0.00339508,0.00717163,0.249214
363,1,0.00259399,0.0453949,0.00926971,0.0152969,0.233994
363,2,0.00305176,0.0801849,0.0346375,0.042038,0.0309372
363,3,0.00282288,-0.0133133,0.0602722,0.0740433,-0.248184
363,4,0.00228882,0.00850677,0.0771713,0.0804138,-0.456924
364,0,0.00160217,-0.0677109,0.0816345,0.0763321,-0.170326
364,1,0.00167847,-0.0266647,0.0741196,0.0618744,0.146866
364,2,-0.000114441,-0.0577927,0.0566483,0.055809,0.0923538
364,3,-0.00377655,-0.0702667,0.0415802,0.050621,0.0923157
364,4,-0.00450134,-0.0351715,0.0359726,0.0457001,0.105362
365,0,-0.00133514,-0.0229263,0.0343323,0.0440216,0.115013
365,1,-7.63E-05,-0.00919342,0.0278091,0.0390625,0.114822
365,2,-0.000991821,0.0018692,0.026207,0.0366974,0.136642
365,3,-0.000915527,0.0218964,0.022316,0.0380707,0.164337
365,4,-0.00286102,0.031395,0.0202179,0.0328445,0.18589
366,0,-0.00038147,0.0302887,0.0218964,0.0358582,0.243149
366,1,-0.000114441,0.0187683,0.0246048,0.0356674,0.154877
366,2,0.000610352,-0.0203705,0.0218964,0.0395203,0.0403214
366,3,0.001297,0.01194,0.0242996,0.0458527,0.0497055
366,4,0.000953674,0.0395203,0.0304413,0.0417709,0.0208282
367,0,0.00171661,0.0522614,0.0297165,0.0344467,-0.217476
367,1,-0.000534058,-0.0654602,0.0397491,0.0320816,-0.287704
367,2,0.000801086,-0.0656891,0.0444794,0.039444,-0.0567245
367,3,0.00118256,-0.0762177,0.0470352,0.0392532,-0.150719
367,4,0.00171661,-0.0646973,0.0455856,0.0374603,-0.030365
368,0,0.0043869,-0.0350189,0.0423813,0.0369263,0.282707
368,1,0.00659943,0.0326157,0.0455093,0.0400543,0.167694
368,2,0.00709534,0.157585,0.0458527,0.0402069,0.129204
368,3,0.00461578,0.142708,0.0390244,0.0315857,0.243797
368,4,-0.00118256,0.132217,0.0365448,0.0310898,0.287209
369,0,-0.00293732,0.10025,0.0320435,0.0302124,0.201378
369,1,-0.00312805,0.0558472,0.0261688,0.0260925,-0.100861
369,2,-0.00152588,-0.0286102,0.0270081,0.0321198,-0.077858
369,3,-0.00236511,-0.090332,0.0276566,0.0340271,0.251045
369,4,-0.00167847,-0.113564,0.033989,0.0432968,0.174522
370,0,0.000419617,-0.0881577,0.042305,0.0567245,-0.216064
370,1,-0.00228882,-0.0607681,0.0432968,0.0583649,-0.423126
370,2,3.81E-05,0.0912476,0.0502777,0.0551605,-0.160637
370,3,0.00389099,0.0798416,0.057869,0.0485611,0.148354
370,4,0.00667572,-0.184364,0.0541687,0.0485229,0.113716
371,0,0.00480652,-0.325394,0.0409317,0.0508499,0.0739288
371,1,0.00377655,-0.0773239,0.0308228,0.0531769,0.0830841
371,2,0.00301361,0.0994873,0.0331497,0.0577545,0.089798
371,3,-0.0025177,0.0358963,0.0369644,0.0587082,0.105934
371,4,-0.00640869,-0.103416,0.0335312,0.0559998,0.0948334
372,0,-0.0030899,0.0218201,0.0330734,0.0462341,0.094223
372,1,-0.00614166,0.116386,0.0286102,0.0418472,0.0892258
372,2,-0.00926971,0.152054,0.0243378,0.0424957,0.0928116
372,3,-0.00667572,0.149574,0.0334167,0.0518417,0.071106
372,4,-0.00377655,0.0548553,0.0355148,0.0514221,0.0296021
373,0,0.000724792,-0.102654,0.0458527,0.0551987,0.0113297
373,1,0.000991821,-0.0723267,0.0533295,0.0560379,-0.00232697
373,2,0.00354767,0.00537872,0.0504684,0.0574493,-0.0260544
373,3,0.00312805,0.00354767,0.0472641,0.0588989,-0.0268173
373,4,0.00221252,-0.0819016,0.045433,0.0559998,0.0323105
374,0,7.63E-05,-0.0915146,0.0413895,0.0472641,0.00747681
374,1,0.00156403,0.0577927,0.0268936,0.0343704,0.048027
374,2,0.00411987,0.117073,0.0156403,0.0205994,0.164757
374,3,0.00679016,-0.218964,0.0115585,0.0118256,0.166626
374,4,0.00854492,-0.237961,0.0213242,0.015564,0.147171
375,0,0.00637054,0.33493,0.0350571,0.0284195,0.212479
375,1,-0.00171661,0.191383,0.0561142,0.0466919,0.0254822
375,2,-0.000991821,0.153923,0.0707626,0.0614548,-0.335732
375,3,0.00370026,0.215263,0.0618744,0.0518417,-0.19928
375,4,-0.000991821,0.0801468,0.0505066,0.0400543,0.127449
376,0,-0.00228882,0.00286102,0.0430679,0.0349045,0.0908661
376,1,-0.001297,0.132828,0.0444412,0.0318527,0.00900269
376,2,0.000953674,-0.0281525,0.0461578,0.0442505,-0.0956345
376,3,0.00274658,-0.343246,0.0458527,0.0532913,-0.0776672
376,4,0.00343323,-0.233116,0.0415039,0.0512695,-0.00137329
377,0,0.000534058,0.021553,0.0269699,0.0455856,0.00465393
377,1,-0.0044632,-0.20092,0.0222778,0.0453949,0.0543213
377,2,-0.0140762,-0.102959,0.0257874,0.0476456,0.132065
377,3,-0.0134659,0.301247,0.0257492,0.054245,0.180702
377,4,-0.00137329,0.204926,0.0247192,0.0494003,0.160103
378,0,0.00747681,0.0160599,0.0244904,0.0464249,0.122528
378,1,0.00774384,-0.0169754,0.026741,0.0458527,0.174217
378,2,0.00724792,0.0554657,0.0274658,0.0423431,0.2565
378,3,0.00148773,-0.0317764,0.0237274,0.0389481,0.0225449
378,4,0.00385284,-0.0443649,0.0230408,0.0326157,-0.204201
379,0,-0.000953674,-0.0445938,0.0251389,0.0328445,-0.108414
379,1,-0.00495911,-0.0647354,0.0299454,0.0333023,0.167084
379,2,0.00148773,-0.0343323,0.0383377,0.0369263,0.145264
379,3,-0.00888824,0.00823975,0.0418091,0.0407028,0.247841
379,4,-0.0168991,-0.0542068,0.0387573,0.043335,0.295982
380,0,-0.0163651,-0.111008,0.0379181,0.0403214,0.315895
380,1,-0.00896454,-0.114632,0.0403214,0.0459671,0.133018
380,2,-0.00366211,-0.103226,0.0397491,0.0427628,-0.13504
380,3,-0.00720978,-0.060463,0.0344086,0.0376129,-0.454483
380,4,-0.000228882,-0.0325394,0.0283813,0.0332642,-0.44239
381,0,0.00869751,-0.00774384,0.0362015,0.0461197,-0.111389
381,1,0.0145721,0.0120163,0.0432968,0.0552368,0.203667
381,2,0.0193405,0.0198746,0.0374603,0.0470734,0.0949097
381,3,0.0227356,0.0151443,0.0405502,0.0544739,0.12085
381,4,0.021553,0.035553,0.0440598,0.053978,0.296783
382,0,0.0143051,0.0534058,0.043335,0.0476074,0.356522
382,1,0.0025177,0.0505066,0.0547791,0.0623703,0.0188828
382,2,-0.0075531,0.0489807,0.0566864,0.0683594,-0.415077
382,3,-0.0153351,0.0437546,0.0414276,0.0496292,-0.215683
382,4,-0.0234222,0.0667191,0.0244904,0.0359344,0.465164
383,0,-0.0176239,0.0395584,0.0167847,0.0268936,0.372276
383,1,-0.00614166,0.00751495,0.024147,0.0353622,-0.0572968
383,2,-0.00152588,0.0369644,0.0334549,0.0491714,-0.587997
383,3,0.00900269,0.181961,0.0450134,0.054512,-0.796432
383,4,0.0157166,0.111694,0.051384,0.0568008,-0.400085
384,0,0.0111008,0.0483322,0.0536346,0.0456619,0.241699
384,1,0.000343323,0.0506973,0.0418854,0.0401306,0.470047
384,2,-0.00358582,-0.0350571,0.0391006,0.0463104,0.450172
384,3,0.000419617,-0.0780487,0.0312042,0.0456619,0.293274
384,4,0.00366211,-0.100136,0.0283051,0.0386047,0.125465
385,0,0.00038147,-0.112572,0.0214005,0.02285,0.0776291
385,1,0.00816345,-0.0219727,0.0154114,0.0128937,0.509949
385,2,0.0186157,-0.0217819,0.0243378,0.0222778,0.592804
385,3,0.017395,0.109482,0.0276184,0.0272369,0.226517
385,4,0.0128937,0.135994,0.0326538,0.0434113,-0.223389
386,0,0.000648499,-0.00270844,0.0482559,0.0547028,-0.340614
386,1,-0.0132751,-0.0598145,0.055275,0.0473022,0.0817871
386,2,-0.0230408,-0.0751877,0.0597,0.0419617,0.198593
386,3,-0.0130463,-0.059433,0.0657654,0.0481033,-0.0446701
386,4,-0.0117111,-0.0476074,0.0661087,0.0516129,-0.210037
387,0,-0.0130081,-0.0392914,0.0566483,0.0495529,0.0652695
387,1,-0.000190735,-0.029068,0.046463,0.0406265,0.425262
387,2,0.000228882,-0.0274277,0.0265884,0.02388,0.517006
387,3,0.00713348,-0.0209808,0.0127411,0.0201035,0.533333
387,4,0.00408173,-0.0153351,0.0094986,0.0217438,0.0207901
388,0,-0.00602722,-0.0162506,0.0167084,0.0260162,-0.523758
388,1,0.00366211,-0.0136566,0.0357437,0.0397491,-0.414352
388,2,0.00198364,-0.00682831,0.0447464,0.0494766,-0.883179
388,3,0.00419617,0.00274658,0.0365067,0.0466919,-0.973015
388,4,-0.00087738,-0.00370026,0.0192642,0.0473785,-0.391159
389,0,-0.0111008,-0.00907898,0.03685,0.0557709,0.342865
389,1,0.00591278,0.00175476,0.0411987,0.0558853,0.276489
389,2,0.0234604,0.0136185,0.0498199,0.0595474,0.0815201
389,3,0.0176239,0.0153732,0.0499725,0.063324,0.476303
389,4,0.0062561,0.0105286,0.038414,0.0542831,0.447578
390,0,-0.00350952,0.00911713,0.0373459,0.0537491,0.259476
390,1,-0.018158,0.0113297,0.0368118,0.0527191,0.25486
390,2,-0.0134277,0.0088501,0.0395203,0.0514603,0.189896
390,3,-0.00408173,0.0195313,0.0461197,0.059433,0.159645
390,4,-0.00461578,0.0659561,0.0494766,0.069809,0.110435
391,0,-0.00148773,0.0841522,0.0452423,0.0679779,0.0736618
391,1,0.00850677,0.0393677,0.0458527,0.0567245,0.0914001
391,2,0.0167084,0.0160217,0.0257492,0.0381088,0.404968
391,3,0.0143433,0.00217438,0.00919342,0.00423431,0.801125
391,4,0.0105667,-0.00354767,-0.00469208,-0.0030899,0.700417
392,0,0.00896454,-0.00831604,-0.00961304,0.0206757,-0.223007
392,1,0.00789642,-0.00610352,0.0212097,0.0468826,-0.628204
392,2,0.00495911,-0.0105667,0.0577164,0.0748444,-0.632858
392,3,0.00236511,-0.0115585,0.0882721,0.082283,-1.1092
392,4,-0.0140381,-0.0160599,0.0889206,0.0783539,-0.734787
393,0,-0.0239563,-0.0229645,0.0664902,0.0502396,-0.209465
393,1,-0.0257111,-0.0251389,0.0183868,0.0334167,0.194359
393,2,-0.0259399,-0.0276184,-0.00656128,0.023613,0.417595
393,3,-0.00823975,-0.0211716,0.000915527,0.0127029,0.333786
393,4,0.00808716,-0.0106812,0.0372314,0.0234985,0.306664
394,0,-0.00816345,-0.00720978,0.0660324,0.0615311,0.279007
394,1,-0.0184631,-0.00556946,0.0587463,0.0630569,0.249634
394,2,0.00724792,0.000152588,0.00831604,0.0619507,0.231056
394,3,0.0168991,0.00904083,-0.0445175,0.0831223,0.210037
394,4,0.0108337,0.00789642,0.00617981,0.117226,0.180664
395,0,-0.00125885,0.00106812,0.0738525,0.111771,0.147667
395,1,-0.000457764,-0.00171661,0.0506973,0.0988388,0.119858
395,2,-0.00236511,0.0044632,0.0479126,0.0369644,0.103416
395,3,-0.00736237,0.0107956,0.051651,-0.180969,0.0773621
395,4,0.00556946,0.00858307,0.0881958,-0.346069,0.0439453
396,0,-0.00106812,-0.00152588,0.123329,-0.288277,-0.00141144
396,1,-0.0120926,-0.00179291,0.119476,-0.111618,-0.0218964
396,2,-0.000762939,0.00324249,0.100365,0.0436783,-0.00453949
396,3,0.0297165,0.00160217,0.013237,0.177727,-0.00507355
396,4,0.0658798,0.00598907,-0.0246811,0.266418,-0.0105286
397,0,0.0320053,0.00930786,-0.0240326,0.284729,-0.0175476
397,1,-0.00450134,0.00225067,0.0438309,0.296974,-0.0301361
397,2,-0.0515366,-0.00991821,0.109177,0.274887,-0.0319672
397,3,-0.0635147,-0.00892639,0.0384521,0.153236,-0.0190735
397,4,-0.0342178,-0.00267029,-0.0307846,-0.0283813,-0.0231171
398,0,0.0210953,-0.00175476,-0.0497055,-0.106087,-0.0260544
398,1,0.0392151,-0.00946045,-0.00671387,-0.14534,-0.0315857
398,2,0.0395966,0.00221252,0.032692,-0.0783157,-0.0144958
398,3,0.0294495,0.00991821,-0.15564,0.0322723,0.0121689
398,4,0.00434875,0.00827789,-0.175056,0.0669861,0.0356293
399,0,-0.00408173,-0.00202179,-0.0440979,0.0546265,0.0516129
399,1,0.00720978,0.00392914,0.103798,0.102005,0.0564194
399,2,0.0137329,0.0191498,0.168304,0.137291,0.0523758
399,3,0.0458908,0.0281906,0.178146,0.172806,0.0411224
399,4,0.0550842,0.0246429,0.206375,0.181656,0.0379562
400,0,0.0436401,0.0181961,0.171738,0.114746,0.0481033
400,1,0.00644684,0.0087738,0.135994,0.0643158,0.0553894
400,2,-0.0520325,-0.0147629,0.106506,0.0489807,0.068779
400,3,-0.0805664,-0.0307465,0.0337219,0.036087,0.0725555
400,4,-0.0523376,-0.0347137,-0.0018692,0.031395,0.0820541
401,0,-0.0373459,-0.0315475,0.0587845,0.0094986,0.0792313
401,1,-0.0564194,-0.0277328,0.0824738,0.00980377,0.0812912
401,2,-0.0679016,-0.0333023,0.0192261,0.0252533,0.0818634
401,3,-0.0669861,-0.0204849,0.0843048,0.0247574,0.0946808
401,4,-0.0554657,-0.00511169,-7.63E-05,0.0109863,0.0947571
402,0,-0.0299072,0.00335693,-0.0391388,0.0062561,0.0789261
402,1,-0.0180054,0.00965118,-0.0647354,0.0572205,0.0708771
402,2,0.00850677,0.026207,-0.00469208,0.0976181,0.0496292
402,3,0.0570297,0.0320816,-0.00656128,0.125427,0.047226
402,4,0.0851822,0.0239944,-0.0616455,0.141678,0.0475693
403,0,0.0711823,0.0221634,-0.0179291,0.13279,0.0399399
403,1,0.0448227,0.0200653,0.0614166,0.0919724,0.0509262
403,2,0.027504,0.0162506,0.0880051,0.0218582,0.0643539
403,3,0.018425,0.00545502,0.135803,-0.00118256,0.0521088
403,4,0.0354385,-0.00976563,0.173721,-0.262947,0.0257874
404,0,0.0502777,-0.00961304,-0.0875473,-0.511551,0.0135803
404,1,0.0299072,0.00209808,-0.186768,-0.585022,0.0307083
404,2,-0.0260925,-0.00343323,-0.169754,-0.275879,0.0279999
404,3,-0.0296783,-0.0123978,-0.0385666,-0.128174,0.0167465
404,4,-0.00675201,-0.00717163,0.0568771,0.0833893,0.0030899
405,0,0.00179291,-0.00118256,0.0881195,0.33123,0.0150299
405,1,0.00259399,0.00469208,0.0861359,0.225067,0.0318909
405,2,-0.0101852,0.00480652,0.0968933,0.0825119,0.0449371
405,3,-0.0304031,-0.00541687,0.0332642,0.00160217,0.0529861
405,4,-0.0139618,-0.00347137,-0.0217438,0.110703,0.074501
406,0,0.0479507,0.0140762,0.0585556,0.240021,0.0712585
406,1,0.084343,0.020256,0.0817108,0.323486,0.0566864
406,2,0.0696182,0.0119781,0.129776,0.249672,0.0621033
406,3,0.0247955,0.00579834,0.137978,0.194855,0.0665665
406,4,0.0102615,0.00164032,0.116272,0.137672,0.0658798
407,0,0.0177765,-0.00667572,0.2985,0.209084,0.074501
407,1,0.0411606,-0.0344467,0.077095,0.393867,0.0704575
407,2,-0.00087738,-0.0482559,-0.17189,0.426483,0.0562286
407,3,-0.0619125,-0.0375748,-0.175591,0.336227,0.0572586
407,4,-0.144768,-0.0238419,-0.226135,0.156784,0.0531769
408,0,-0.178032,-0.0106812,0.0582123,-0.217285,0.0530624
408,1,-0.142555,-0.00396729,0.270958,-0.227013,0.0574875
408,2,-0.0642395,-0.00888824,0.35717,0.0489807,0.0311661
408,3,-0.0422287,-0.00171661,0.0651169,-0.00923157,0.00778198
408,4,-0.00713348,0.00720978,-0.137253,-0.218811,-0.00339508
409,0,0.0105667,0.0204468,0.0896072,-0.384331,0.00572205
409,1,0.0270844,0.0258255,0.154533,-0.391693,0.013504
409,2,0.0670242,0.0267029,0.281296,-0.140076,0.00217438
409,3,0.0900269,0.0299835,0.350113,0.232849,-0.0159073
409,4,0.0733566,0.0269318,0.257416,0.398178,-0.0382996
410,0,0.0345612,0.0246048,0.00907898,0.416298,-0.0353241
410,1,0.00366211,0.0183487,-0.15995,0.103035,0.00396729
410,2,-0.00919342,0.00621796,-0.467339,-0.426445,0.0339508
410,3,-0.0176239,0.000801086,-0.448189,-0.584259,0.0507736
410,4,-0.00846863,0.00267029,-0.0956726,-0.33432,0.0691605
411,0,0.00602722,0.00255585,-0.0325012,-0.0564575,0.0740814
411,1,0.051918,-0.00087738,-0.0325012,0.172005,0.0789642
411,2,0.0665665,-0.00102997,-0.0821304,0.360184,0.0852966
411,3,0.0535202,-0.00228882,0.100975,0.462189,0.091095
411,4,0.0223923,-0.00541687,0.12722,0.474319,0.0903702
412,0,-0.0149536,-0.00278473,0.141563,0.511436,0.0810242
412,1,-0.0344467,-0.00362396,0.268478,0.489273,0.075531
412,2,-0.0365067,-0.00137329,0.254021,0.313416,0.0696945
412,3,-0.00209808,0.00324249,-0.108948,-0.206337,0.0632477
412,4,0.0354004,0.000572205,-0.109978,-0.53669,0.0530624
413,0,0.0359344,-0.011673,0.241394,-0.479469,0.0413513
413,1,0.00610352,-0.0183487,0.26741,-0.388336,0.0553131
